0	-0.002253
0.001	-0.00224
0.002	-0.002281
0.003	-0.002135
0.004	-0.002224
0.005	-0.002188
0.006	-0.002335
0.007	-0.002264
0.008	-0.002302
0.009	-0.002325
0.01	-0.002189
0.011	-0.002247
0.012	-0.002305
0.013	-0.002183
0.014	-0.002159
0.015	-0.002184
0.016	-0.002316
0.017	-0.002175
0.018	-0.002245
0.019	-0.00227
0.02	-0.002252
0.021	-0.002183
0.022	-0.002345
0.023	-0.002342
0.024	-0.002262
0.025	-0.002211
0.026	-0.002341
0.027	-0.002279
0.028	-0.002228
0.029	-0.002285
0.03	-0.002163
0.031	-0.002362
0.032	-0.002276
0.033	-0.002258
0.034	-0.00223
0.035	-0.002152
0.036	-0.002228
0.037	-0.002267
0.038	-0.002305
0.039	-0.00241
0.04	-0.002311
0.041	-0.002286
0.042	-0.002317
0.043	-0.002179
0.044	-0.002207
0.045	-0.002231
0.046	-0.002263
0.047	-0.00227
0.048	-0.002288
0.049	-0.002336
0.05	-0.002301
0.051	-0.002297
0.052	-0.00221
0.053	-0.002269
0.054	-0.002154
0.055	-0.002211
0.056	-0.002237
0.057	-0.00233
0.058	-0.002257
0.059	-0.002336
0.06	-0.00226
0.061	-0.002256
0.062	-0.002361
0.063	-0.002201
0.064	-0.00226
0.065	-0.002262
0.066	-0.002369
0.067	-0.002278
0.068	-0.002288
0.069	-0.002273
0.07	-0.002269
0.071	-0.00226
0.072	-0.002299
0.073	-0.002302
0.074	-0.002244
0.075	-0.002287
0.076	-0.002316
0.077	-0.002238
0.078	-0.002304
0.079	-0.002234
0.08	-0.002153
0.081	-0.002183
0.082	-0.002236
0.083	-0.002236
0.084	-0.002211
0.085	-0.002182
0.086	-0.002278
0.087	-0.00233
0.088	-0.002219
0.089	-0.002207
0.09	-0.002199
0.091	-0.002212
0.092	-0.00227
0.093	-0.002288
0.094	-0.002102
0.095	-0.002249
0.096	-0.002179
0.097	-0.002235
0.098	-0.002206
0.099	-0.002258
0.1	-0.002236
0.101	-0.002211
0.102	-0.002217
0.103	-0.00224
0.104	-0.002167
0.105	-0.002247
0.106	-0.002236
0.107	-0.002175
0.108	-0.002228
0.109	-0.002188
0.11	-0.002162
0.111	-0.002194
0.112	-0.002179
0.113	-0.002195
0.114	-0.002198
0.115	-0.002196
0.116	-0.00222
0.117	-0.002262
0.118	-0.002228
0.119	-0.002233
0.12	-0.002155
0.121	-0.002185
0.122	-0.002249
0.123	-0.002237
0.124	-0.002168
0.125	-0.002231
0.126	-0.002306
0.127	-0.002267
0.128	-0.002223
0.129	-0.0023
0.13	-0.002275
0.131	-0.002272
0.132	-0.002192
0.133	-0.002191
0.134	-0.002315
0.135	-0.002152
0.136	-0.002266
0.137	-0.002218
0.138	-0.002244
0.139	-0.002288
0.14	-0.002238
0.141	-0.002288
0.142	-0.00226
0.143	-0.002213
0.144	-0.002269
0.145	-0.002217
0.146	-0.002191
0.147	-0.002193
0.148	-0.002219
0.149	-0.002262
0.15	-0.002314
0.151	-0.002197
0.152	-0.002306
0.153	-0.002248
0.154	-0.002333
0.155	-0.002309
0.156	-0.002244
0.157	-0.002291
0.158	-0.002213
0.159	-0.002159
0.16	-0.002262
0.161	-0.002352
0.162	-0.002302
0.163	-0.002205
0.164	-0.00228
0.165	-0.002269
0.166	-0.002361
0.167	-0.002206
0.168	-0.002246
0.169	-0.002393
0.17	-0.002336
0.171	-0.002203
0.172	-0.002365
0.173	-0.002246
0.174	-0.002295
0.175	-0.002216
0.176	-0.002276
0.177	-0.002311
0.178	-0.00228
0.179	-0.002242
0.18	-0.0023
0.181	-0.002335
0.182	-0.002221
0.183	-0.002289
0.184	-0.002264
0.185	-0.002354
0.186	-0.002304
0.187	-0.002286
0.188	-0.002171
0.189	-0.002278
0.19	-0.002306
0.191	-0.0023
0.192	-0.00233
0.193	-0.00219
0.194	-0.002292
0.195	-0.002359
0.196	-0.002262
0.197	-0.002139
0.198	-0.002305
0.199	-0.002264
0.2	-0.002302
0.201	-0.00228
0.202	-0.002304
0.203	-0.002224
0.204	-0.002331
0.205	-0.00228
0.206	-0.002302
0.207	-0.002281
0.208	-0.002254
0.209	-0.002248
0.21	-0.002278
0.211	-0.002324
0.212	-0.002311
0.213	-0.002258
0.214	-0.002268
0.215	-0.002409
0.216	-0.002312
0.217	-0.002343
0.218	-0.002365
0.219	-0.00219
0.22	-0.002232
0.221	-0.002269
0.222	-0.002291
0.223	-0.002251
0.224	-0.002297
0.225	-0.002251
0.226	-0.002255
0.227	-0.002296
0.228	-0.0023
0.229	-0.002241
0.23	-0.002171
0.231	-0.002308
0.232	-0.002235
0.233	-0.002289
0.234	-0.002326
0.235	-0.002346
0.236	-0.002313
0.237	-0.0023
0.238	-0.002357
0.239	-0.002329
0.24	-0.002401
0.241	-0.002321
0.242	-0.002387
0.243	-0.002308
0.244	-0.002389
0.245	-0.002417
0.246	-0.002429
0.247	-0.002307
0.248	-0.002394
0.249	-0.002361
0.25	-0.002331
0.251	-0.002305
0.252	-0.002307
0.253	-0.002288
0.254	-0.002179
0.255	-0.002143
0.256	-0.002143
0.257	-0.002102
0.258	-0.001964
0.259	-0.00196
0.26	-0.001844
0.261	-0.001852
0.262	-0.00191
0.263	-0.001754
0.264	-0.001892
0.265	-0.001707
0.266	-0.001764
0.267	-0.001644
0.268	-0.0017
0.269	-0.00166
0.27	-0.001565
0.271	-0.001485
0.272	-0.001537
0.273	-0.001516
0.274	-0.001574
0.275	-0.001557
0.276	-0.001544
0.277	-0.001621
0.278	-0.001672
0.279	-0.001775
0.28	-0.001682
0.281	-0.001744
0.282	-0.001718
0.283	-0.001814
0.284	-0.001806
0.285	-0.001815
0.286	-0.001989
0.287	-0.001923
0.288	-0.001993
0.289	-0.002057
0.29	-0.002078
0.291	-0.002053
0.292	-0.002034
0.293	-0.002017
0.294	-0.002052
0.295	-0.002066
0.296	-0.00209
0.297	-0.002096
0.298	-0.002217
0.299	-0.002215
0.3	-0.002143
0.301	-0.002113
0.302	-0.002129
0.303	-0.002236
0.304	-0.002248
0.305	-0.00221
0.306	-0.002215
0.307	-0.002228
0.308	-0.002256
0.309	-0.002265
0.31	-0.002326
0.311	-0.002325
0.312	-0.002235
0.313	-0.002242
0.314	-0.002256
0.315	-0.002345
0.316	-0.002304
0.317	-0.00232
0.318	-0.002275
0.319	-0.002307
0.32	-0.002264
0.321	-0.002402
0.322	-0.002408
0.323	-0.002268
0.324	-0.002292
0.325	-0.002219
0.326	-0.00232
0.327	-0.002295
0.328	-0.002309
0.329	-0.002398
0.33	-0.002282
0.331	-0.00232
0.332	-0.002304
0.333	-0.002296
0.334	-0.002224
0.335	-0.002268
0.336	-0.00226
0.337	-0.00224
0.338	-0.002212
0.339	-0.002286
0.34	-0.002284
0.341	-0.002366
0.342	-0.002334
0.343	-0.002252
0.344	-0.002257
0.345	-0.002202
0.346	-0.002444
0.347	-0.002369
0.348	-0.00235
0.349	-0.002201
0.35	-0.002248
0.351	-0.00241
0.352	-0.00228
0.353	-0.002288
0.354	-0.00226
0.355	-0.00235
0.356	-0.002279
0.357	-0.002285
0.358	-0.002312
0.359	-0.002338
0.36	-0.002264
0.361	-0.002291
0.362	-0.002277
0.363	-0.002231
0.364	-0.002276
0.365	-0.002308
0.366	-0.002249
0.367	-0.002299
0.368	-0.00228
0.369	-0.002336
0.37	-0.002271
0.371	-0.002331
0.372	-0.002195
0.373	-0.002311
0.374	-0.00229
0.375	-0.00228
0.376	-0.002301
0.377	-0.002251
0.378	-0.002159
0.379	-0.002352
0.38	-0.002264
0.381	-0.002349
0.382	-0.002312
0.383	-0.002402
0.384	-0.002329
0.385	-0.002254
0.386	-0.002224
0.387	-0.002294
0.388	-0.002186
0.389	-0.00216
0.39	-0.002285
0.391	-0.002329
0.392	-0.002256
0.393	-0.002329
0.394	-0.002262
0.395	-0.002308
0.396	-0.002257
0.397	-0.002308
0.398	-0.002254
0.399	-0.002333
0.4	-0.002206
0.401	-0.002342
0.402	-0.00223
0.403	-0.002295
0.404	-0.002333
0.405	-0.002299
0.406	-0.002301
0.407	-0.002307
0.408	-0.002304
0.409	-0.002211
0.41	-0.002266
0.411	-0.002208
0.412	-0.002194
0.413	-0.002199
0.414	-0.002205
0.415	-0.002187
0.416	-0.002263
0.417	-0.002207
0.418	-0.002217
0.419	-0.002292
0.42	-0.002323
0.421	-0.002295
0.422	-0.002222
0.423	-0.002249
0.424	-0.002204
0.425	-0.00227
0.426	-0.002233
0.427	-0.002248
0.428	-0.002292
0.429	-0.002209
0.43	-0.002306
0.431	-0.002231
0.432	-0.002288
0.433	-0.00221
0.434	-0.002316
0.435	-0.002203
0.436	-0.002214
0.437	-0.002222
0.438	-0.002224
0.439	-0.002153
0.44	-0.002232
0.441	-0.002342
0.442	-0.002237
0.443	-0.002304
0.444	-0.002222
0.445	-0.002271
0.446	-0.002334
0.447	-0.002209
0.448	-0.002217
0.449	-0.002125
0.45	-0.002238
0.451	-0.002327
0.452	-0.002261
0.453	-0.002211
0.454	-0.002137
0.455	-0.002123
0.456	-0.00228
0.457	-0.002253
0.458	-0.002252
0.459	-0.00216
0.46	-0.002213
0.461	-0.002218
0.462	-0.002135
0.463	-0.002224
0.464	-0.002238
0.465	-0.00222
0.466	-0.002219
0.467	-0.002182
0.468	-0.002262
0.469	-0.002292
0.47	-0.002268
0.471	-0.002293
0.472	-0.002288
0.473	-0.002262
0.474	-0.002141
0.475	-0.002218
0.476	-0.002337
0.477	-0.002178
0.478	-0.002288
0.479	-0.002154
0.48	-0.00216
0.481	-0.002252
0.482	-0.002237
0.483	-0.002207
0.484	-0.002207
0.485	-0.002195
0.486	-0.002155
0.487	-0.002264
0.488	-0.002068
0.489	-0.002155
0.49	-0.002195
0.491	-0.002215
0.492	-0.002187
0.493	-0.002175
0.494	-0.002225
0.495	-0.002217
0.496	-0.002208
0.497	-0.002148
0.498	-0.00221
0.499	-0.002156
0.5	-0.002184
0.501	-0.002242
0.502	-0.002139
0.503	-0.002192
0.504	-0.002198
0.505	-0.002018
0.506	-0.002109
0.507	-0.002142
0.508	-0.002144
0.509	-0.002136
0.51	-0.002133
0.511	-0.002106
0.512	-0.002127
0.513	-0.002216
0.514	-0.002154
0.515	-0.002175
0.516	-0.002244
0.517	-0.002201
0.518	-0.002147
0.519	-0.002229
0.52	-0.002175
0.521	-0.002204
0.522	-0.00217
0.523	-0.002179
0.524	-0.002153
0.525	-0.002158
0.526	-0.002124
0.527	-0.002058
0.528	-0.002183
0.529	-0.002123
0.53	-0.00209
0.531	-0.002155
0.532	-0.002135
0.533	-0.00215
0.534	-0.002246
0.535	-0.002277
0.536	-0.002187
0.537	-0.002284
0.538	-0.002187
0.539	-0.002238
0.54	-0.002296
0.541	-0.002219
0.542	-0.002113
0.543	-0.002218
0.544	-0.002224
0.545	-0.002225
0.546	-0.002207
0.547	-0.002234
0.548	-0.00226
0.549	-0.002257
0.55	-0.002184
0.551	-0.002265
0.552	-0.002239
0.553	-0.002198
0.554	-0.002295
0.555	-0.002183
0.556	-0.002269
0.557	-0.002308
0.558	-0.002247
0.559	-0.002291
0.56	-0.002343
0.561	-0.0023
0.562	-0.0023
0.563	-0.002361
0.564	-0.002247
0.565	-0.002215
0.566	-0.002284
0.567	-0.002155
0.568	-0.002246
0.569	-0.00224
0.57	-0.002323
0.571	-0.002267
0.572	-0.002295
0.573	-0.00232
0.574	-0.002284
0.575	-0.002321
0.576	-0.002366
0.577	-0.00218
0.578	-0.002131
0.579	-0.002256
0.58	-0.002268
0.581	-0.002215
0.582	-0.002217
0.583	-0.002238
0.584	-0.00231
0.585	-0.002349
0.586	-0.002221
0.587	-0.002386
0.588	-0.002238
0.589	-0.002252
0.59	-0.002272
0.591	-0.002244
0.592	-0.002236
0.593	-0.002359
0.594	-0.002243
0.595	-0.002318
0.596	-0.002328
0.597	-0.002336
0.598	-0.00225
0.599	-0.002251
0.6	-0.002291
0.601	-0.00226
0.602	-0.002263
0.603	-0.002332
0.604	-0.002286
0.605	-0.002241
0.606	-0.002256
0.607	-0.002252
0.608	-0.002248
0.609	-0.002256
0.61	-0.002284
0.611	-0.002292
0.612	-0.002303
0.613	-0.002314
0.614	-0.002359
0.615	-0.002222
0.616	-0.002234
0.617	-0.002179
0.618	-0.002357
0.619	-0.00224
0.62	-0.002248
0.621	-0.002383
0.622	-0.002353
0.623	-0.002243
0.624	-0.002259
0.625	-0.002386
0.626	-0.002284
0.627	-0.002301
0.628	-0.002297
0.629	-0.002232
0.63	-0.002212
0.631	-0.002331
0.632	-0.002276
0.633	-0.002249
0.634	-0.002307
0.635	-0.002228
0.636	-0.002255
0.637	-0.002257
0.638	-0.00226
0.639	-0.002207
0.64	-0.002303
0.641	-0.002371
0.642	-0.002258
0.643	-0.002151
0.644	-0.002274
0.645	-0.002235
0.646	-0.002261
0.647	-0.00225
0.648	-0.002301
0.649	-0.002344
0.65	-0.002312
0.651	-0.002305
0.652	-0.002279
0.653	-0.002236
0.654	-0.002082
0.655	-0.00222
0.656	-0.002271
0.657	-0.002252
0.658	-0.0022
0.659	-0.002268
0.66	-0.002275
0.661	-0.002167
0.662	-0.002257
0.663	-0.002293
0.664	-0.002177
0.665	-0.002338
0.666	-0.002299
0.667	-0.002236
0.668	-0.002278
0.669	-0.002336
0.67	-0.002301
0.671	-0.002276
0.672	-0.002183
0.673	-0.002329
0.674	-0.002268
0.675	-0.002322
0.676	-0.002219
0.677	-0.002276
0.678	-0.00239
0.679	-0.002167
0.68	-0.002308
0.681	-0.002316
0.682	-0.002316
0.683	-0.002397
0.684	-0.002258
0.685	-0.002365
0.686	-0.002349
0.687	-0.002307
0.688	-0.002298
0.689	-0.002284
0.69	-0.002276
0.691	-0.002288
0.692	-0.002332
0.693	-0.00238
0.694	-0.002269
0.695	-0.002268
0.696	-0.002248
0.697	-0.002206
0.698	-0.002293
0.699	-0.002277
0.7	-0.0023
0.701	-0.002211
0.702	-0.002212
0.703	-0.002184
0.704	-0.002294
0.705	-0.002268
0.706	-0.002293
0.707	-0.002257
0.708	-0.002247
0.709	-0.002256
0.71	-0.002336
0.711	-0.002246
0.712	-0.002365
0.713	-0.00232
0.714	-0.00219
0.715	-0.002256
0.716	-0.002238
0.717	-0.002304
0.718	-0.002327
0.719	-0.00224
0.72	-0.002287
0.721	-0.002366
0.722	-0.002269
0.723	-0.002213
0.724	-0.002242
0.725	-0.00228
0.726	-0.002323
0.727	-0.002221
0.728	-0.002248
0.729	-0.00224
0.73	-0.002208
0.731	-0.002405
0.732	-0.002312
0.733	-0.002277
0.734	-0.002223
0.735	-0.002302
0.736	-0.002321
0.737	-0.002222
0.738	-0.002314
0.739	-0.00226
0.74	-0.00231
0.741	-0.002303
0.742	-0.002268
0.743	-0.002281
0.744	-0.002155
0.745	-0.002299
0.746	-0.002279
0.747	-0.002318
0.748	-0.002175
0.749	-0.002264
0.75	-0.002318
0.751	-0.002317
0.752	-0.002289
0.753	-0.002217
0.754	-0.002253
0.755	-0.002345
0.756	-0.002297
0.757	-0.00226
0.758	-0.002281
0.759	-0.002207
0.76	-0.002256
0.761	-0.002184
0.762	-0.00226
0.763	-0.002335
0.764	-0.002216
0.765	-0.002357
0.766	-0.002286
0.767	-0.002393
0.768	-0.002308
0.769	-0.002253
0.77	-0.002329
0.771	-0.002225
0.772	-0.002312
0.773	-0.00233
0.774	-0.002191
0.775	-0.002336
0.776	-0.002312
0.777	-0.00224
0.778	-0.002224
0.779	-0.002308
0.78	-0.002257
0.781	-0.002191
0.782	-0.002331
0.783	-0.002259
0.784	-0.002268
0.785	-0.002345
0.786	-0.002287
0.787	-0.002283
0.788	-0.002297
0.789	-0.002249
0.79	-0.002324
0.791	-0.002355
0.792	-0.002294
0.793	-0.002171
0.794	-0.002163
0.795	-0.002249
0.796	-0.002232
0.797	-0.002192
0.798	-0.002377
0.799	-0.002268
0.8	-0.002262
0.801	-0.002284
0.802	-0.002247
0.803	-0.002223
0.804	-0.002235
0.805	-0.002261
0.806	-0.002256
0.807	-0.002158
0.808	-0.002287
0.809	-0.002304
0.81	-0.00231
0.811	-0.002245
0.812	-0.002271
0.813	-0.002278
0.814	-0.002321
0.815	-0.002312
0.816	-0.00227
0.817	-0.002179
0.818	-0.002289
0.819	-0.002204
0.82	-0.002331
0.821	-0.002329
0.822	-0.002348
0.823	-0.002377
0.824	-0.002247
0.825	-0.002195
0.826	-0.002276
0.827	-0.002254
0.828	-0.002315
0.829	-0.002235
0.83	-0.002162
0.831	-0.002325
0.832	-0.002254
0.833	-0.002272
0.834	-0.002198
0.835	-0.002296
0.836	-0.002228
0.837	-0.002301
0.838	-0.002143
0.839	-0.002201
0.84	-0.002244
0.841	-0.002156
0.842	-0.002253
0.843	-0.002281
0.844	-0.002249
0.845	-0.002224
0.846	-0.002271
0.847	-0.002194
0.848	-0.002252
0.849	-0.002131
0.85	-0.002276
0.851	-0.00235
0.852	-0.002173
0.853	-0.002208
0.854	-0.002141
0.855	-0.002144
0.856	-0.002171
0.857	-0.002252
0.858	-0.002175
0.859	-0.002321
0.86	-0.00225
0.861	-0.002174
0.862	-0.002162
0.863	-0.00227
0.864	-0.002182
0.865	-0.00218
0.866	-0.002232
0.867	-0.002139
0.868	-0.002214
0.869	-0.002234
0.87	-0.002218
0.871	-0.002199
0.872	-0.00218
0.873	-0.00232
0.874	-0.002235
0.875	-0.002144
0.876	-0.002196
0.877	-0.002322
0.878	-0.002243
0.879	-0.002185
0.88	-0.002232
0.881	-0.002228
0.882	-0.002248
0.883	-0.002134
0.884	-0.002387
0.885	-0.002156
0.886	-0.002272
0.887	-0.002224
0.888	-0.002272
0.889	-0.002383
0.89	-0.002229
0.891	-0.00228
0.892	-0.002277
0.893	-0.002309
0.894	-0.002218
0.895	-0.00227
0.896	-0.002225
0.897	-0.0023
0.898	-0.002148
0.899	-0.002264
0.9	-0.002241
0.901	-0.002334
0.902	-0.002132
0.903	-0.002306
0.904	-0.002234
0.905	-0.002323
0.906	-0.002248
0.907	-0.002274
0.908	-0.002219
0.909	-0.002253
0.91	-0.002238
0.911	-0.002168
0.912	-0.002346
0.913	-0.0023
0.914	-0.0023
0.915	-0.002256
0.916	-0.002297
0.917	-0.002319
0.918	-0.002308
0.919	-0.002286
0.92	-0.0022
0.921	-0.002362
0.922	-0.002271
0.923	-0.002297
0.924	-0.002248
0.925	-0.002299
0.926	-0.002305
0.927	-0.002275
0.928	-0.002264
0.929	-0.002385
0.93	-0.002292
0.931	-0.002324
0.932	-0.00228
0.933	-0.002357
0.934	-0.002296
0.935	-0.002167
0.936	-0.002257
0.937	-0.0023
0.938	-0.002317
0.939	-0.002193
0.94	-0.002324
0.941	-0.002292
0.942	-0.002304
0.943	-0.002276
0.944	-0.002251
0.945	-0.002279
0.946	-0.002156
0.947	-0.002217
0.948	-0.002244
0.949	-0.00216
0.95	-0.002263
0.951	-0.002382
0.952	-0.002307
0.953	-0.002337
0.954	-0.002359
0.955	-0.002279
0.956	-0.00224
0.957	-0.002185
0.958	-0.002241
0.959	-0.002284
0.96	-0.002252
0.961	-0.002135
0.962	-0.002258
0.963	-0.00224
0.964	-0.002438
0.965	-0.002267
0.966	-0.002267
0.967	-0.002244
0.968	-0.002272
0.969	-0.002246
0.97	-0.002248
0.971	-0.002234
0.972	-0.002216
0.973	-0.002303
0.974	-0.00221
0.975	-0.002296
0.976	-0.002341
0.977	-0.002219
0.978	-0.002308
0.979	-0.002288
0.98	-0.002277
0.981	-0.002304
0.982	-0.002294
0.983	-0.002289
0.984	-0.002279
0.985	-0.002222
0.986	-0.002369
0.987	-0.002425
0.988	-0.002265
0.989	-0.002381
0.99	-0.002377
0.991	-0.002242
0.992	-0.002268
0.993	-0.002349
0.994	-0.002376
0.995	-0.002308
0.996	-0.002296
0.997	-0.002421
0.998	-0.002412
0.999	-0.002385
1	-0.00228
1.001	-0.002368
1.002	-0.002261
1.003	-0.002226
1.004	-0.002252
1.005	-0.002131
1.006	-0.002154
1.007	-0.002046
1.008	-0.002033
1.009	-0.001983
1.01	-0.00196
1.011	-0.001853
1.012	-0.00188
1.013	-0.001929
1.014	-0.001799
1.015	-0.001755
1.016	-0.001711
1.017	-0.001608
1.018	-0.001605
1.019	-0.001593
1.02	-0.001596
1.021	-0.001521
1.022	-0.001481
1.023	-0.001566
1.024	-0.001599
1.025	-0.001636
1.026	-0.001602
1.027	-0.001569
1.028	-0.001687
1.029	-0.001669
1.03	-0.001677
1.031	-0.001739
1.032	-0.001775
1.033	-0.001788
1.034	-0.001791
1.035	-0.001807
1.036	-0.001887
1.037	-0.001874
1.038	-0.001976
1.039	-0.001978
1.04	-0.001872
1.041	-0.002137
1.042	-0.002107
1.043	-0.002096
1.044	-0.002053
1.045	-0.002163
1.046	-0.002162
1.047	-0.002232
1.048	-0.002141
1.049	-0.002233
1.05	-0.002259
1.051	-0.00218
1.052	-0.002248
1.053	-0.002221
1.054	-0.002302
1.055	-0.002304
1.056	-0.002201
1.057	-0.00219
1.058	-0.002323
1.059	-0.002219
1.06	-0.002174
1.061	-0.002329
1.062	-0.002244
1.063	-0.002278
1.064	-0.002136
1.065	-0.002308
1.066	-0.002252
1.067	-0.002287
1.068	-0.002304
1.069	-0.002261
1.07	-0.002301
1.071	-0.002291
1.072	-0.002345
1.073	-0.002179
1.074	-0.002294
1.075	-0.002169
1.076	-0.002292
1.077	-0.002285
1.078	-0.002262
1.079	-0.002207
1.08	-0.002254
1.081	-0.002285
1.082	-0.00227
1.083	-0.002267
1.084	-0.002321
1.085	-0.002329
1.086	-0.002275
1.087	-0.002342
1.088	-0.00237
1.089	-0.002278
1.09	-0.002246
1.091	-0.002244
1.092	-0.002169
1.093	-0.002282
1.094	-0.0023
1.095	-0.002313
1.096	-0.002248
1.097	-0.002337
1.098	-0.002381
1.099	-0.00232
1.1	-0.0023
1.101	-0.002231
1.102	-0.002179
1.103	-0.002239
1.104	-0.0023
1.105	-0.002324
1.106	-0.002269
1.107	-0.002224
1.108	-0.002267
1.109	-0.002211
1.11	-0.002284
1.111	-0.002207
1.112	-0.00225
1.113	-0.002349
1.114	-0.002318
1.115	-0.002229
1.116	-0.002314
1.117	-0.002188
1.118	-0.002353
1.119	-0.002321
1.12	-0.002248
1.121	-0.002263
1.122	-0.002249
1.123	-0.002256
1.124	-0.002299
1.125	-0.002279
1.126	-0.002301
1.127	-0.002316
1.128	-0.002198
1.129	-0.002251
1.13	-0.002225
1.131	-0.002304
1.132	-0.002292
1.133	-0.00232
1.134	-0.002255
1.135	-0.002298
1.136	-0.002272
1.137	-0.002119
1.138	-0.002236
1.139	-0.002308
1.14	-0.002254
1.141	-0.002274
1.142	-0.002324
1.143	-0.002262
1.144	-0.00224
1.145	-0.002261
1.146	-0.002194
1.147	-0.002195
1.148	-0.00227
1.149	-0.002311
1.15	-0.002245
1.151	-0.00229
1.152	-0.00236
1.153	-0.002286
1.154	-0.00221
1.155	-0.002251
1.156	-0.002289
1.157	-0.002328
1.158	-0.002228
1.159	-0.002256
1.16	-0.00229
1.161	-0.002126
1.162	-0.00228
1.163	-0.002264
1.164	-0.002297
1.165	-0.002197
1.166	-0.002175
1.167	-0.002252
1.168	-0.002219
1.169	-0.002231
1.17	-0.002211
1.171	-0.002329
1.172	-0.002199
1.173	-0.002187
1.174	-0.002222
1.175	-0.002219
1.176	-0.002123
1.177	-0.00233
1.178	-0.002228
1.179	-0.002199
1.18	-0.002274
1.181	-0.002308
1.182	-0.002296
1.183	-0.002141
1.184	-0.002333
1.185	-0.002261
1.186	-0.002282
1.187	-0.002343
1.188	-0.002235
1.189	-0.00229
1.19	-0.002174
1.191	-0.002293
1.192	-0.002232
1.193	-0.002349
1.194	-0.002168
1.195	-0.002302
1.196	-0.002175
1.197	-0.002174
1.198	-0.00224
1.199	-0.002254
1.2	-0.002247
1.201	-0.002195
1.202	-0.002274
1.203	-0.002191
1.204	-0.002232
1.205	-0.002215
1.206	-0.00224
1.207	-0.00221
1.208	-0.002221
1.209	-0.002175
1.21	-0.002243
1.211	-0.002212
1.212	-0.002213
1.213	-0.002272
1.214	-0.002274
1.215	-0.002174
1.216	-0.002265
1.217	-0.002265
1.218	-0.002207
1.219	-0.002231
1.22	-0.002237
1.221	-0.00223
1.222	-0.00215
1.223	-0.002215
1.224	-0.00219
1.225	-0.002245
1.226	-0.002171
1.227	-0.002219
1.228	-0.002238
1.229	-0.002162
1.23	-0.002243
1.231	-0.002164
1.232	-0.002287
1.233	-0.002187
1.234	-0.002175
1.235	-0.00224
1.236	-0.002244
1.237	-0.00214
1.238	-0.002238
1.239	-0.002179
1.24	-0.002142
1.241	-0.002236
1.242	-0.002161
1.243	-0.002118
1.244	-0.002158
1.245	-0.002224
1.246	-0.00221
1.247	-0.002215
1.248	-0.002143
1.249	-0.002271
1.25	-0.002214
1.251	-0.002225
1.252	-0.002123
1.253	-0.002166
1.254	-0.002296
1.255	-0.002136
1.256	-0.002131
1.257	-0.002162
1.258	-0.002185
1.259	-0.00221
1.26	-0.002148
1.261	-0.002179
1.262	-0.002191
1.263	-0.002135
1.264	-0.002133
1.265	-0.002171
1.266	-0.002053
1.267	-0.002144
1.268	-0.002164
1.269	-0.002179
1.27	-0.002201
1.271	-0.00216
1.272	-0.002224
1.273	-0.00225
1.274	-0.00226
1.275	-0.002256
1.276	-0.002215
1.277	-0.002264
1.278	-0.002149
1.279	-0.002058
1.28	-0.002206
1.281	-0.002148
1.282	-0.002148
1.283	-0.002146
1.284	-0.002232
1.285	-0.002223
1.286	-0.002151
1.287	-0.002268
1.288	-0.002178
1.289	-0.002128
1.29	-0.002245
1.291	-0.00218
1.292	-0.002122
1.293	-0.002235
1.294	-0.002256
1.295	-0.002305
1.296	-0.002215
1.297	-0.002183
1.298	-0.002216
1.299	-0.002209
1.3	-0.002245
1.301	-0.002273
1.302	-0.002319
1.303	-0.002261
1.304	-0.002284
1.305	-0.002218
1.306	-0.002191
1.307	-0.002373
1.308	-0.002223
1.309	-0.002232
1.31	-0.002304
1.311	-0.002325
1.312	-0.002244
1.313	-0.002299
1.314	-0.002228
1.315	-0.002288
1.316	-0.002264
1.317	-0.002224
1.318	-0.002308
1.319	-0.002273
1.32	-0.002307
1.321	-0.00227
1.322	-0.00233
1.323	-0.002296
1.324	-0.002216
1.325	-0.002282
1.326	-0.002287
1.327	-0.002236
1.328	-0.002273
1.329	-0.002286
1.33	-0.002202
1.331	-0.002269
1.332	-0.002316
1.333	-0.002331
1.334	-0.002324
1.335	-0.00225
1.336	-0.002292
1.337	-0.002283
1.338	-0.002309
1.339	-0.002236
1.34	-0.002233
1.341	-0.002333
1.342	-0.002191
1.343	-0.002264
1.344	-0.002186
1.345	-0.002347
1.346	-0.002318
1.347	-0.002267
1.348	-0.00227
1.349	-0.00232
1.35	-0.002313
1.351	-0.002303
1.352	-0.002151
1.353	-0.002276
1.354	-0.002341
1.355	-0.002277
1.356	-0.002205
1.357	-0.002232
1.358	-0.002317
1.359	-0.002219
1.36	-0.002219
1.361	-0.002322
1.362	-0.002156
1.363	-0.002254
1.364	-0.002289
1.365	-0.002253
1.366	-0.002208
1.367	-0.002203
1.368	-0.002288
1.369	-0.002251
1.37	-0.002276
1.371	-0.002199
1.372	-0.002209
1.373	-0.002297
1.374	-0.00226
1.375	-0.002244
1.376	-0.002278
1.377	-0.00231
1.378	-0.002298
1.379	-0.002287
1.38	-0.00222
1.381	-0.002287
1.382	-0.002248
1.383	-0.002189
1.384	-0.002219
1.385	-0.002238
1.386	-0.002207
1.387	-0.002247
1.388	-0.002274
1.389	-0.0023
1.39	-0.002272
1.391	-0.002239
1.392	-0.00226
1.393	-0.002253
1.394	-0.002258
1.395	-0.002228
1.396	-0.002266
1.397	-0.002277
1.398	-0.002272
1.399	-0.002293
1.4	-0.002353
1.401	-0.00224
1.402	-0.002272
1.403	-0.002318
1.404	-0.002369
1.405	-0.002225
1.406	-0.002151
1.407	-0.002204
1.408	-0.002244
1.409	-0.002244
1.41	-0.00228
1.411	-0.002357
1.412	-0.00226
1.413	-0.002259
1.414	-0.00222
1.415	-0.002341
1.416	-0.002326
1.417	-0.002331
1.418	-0.00227
1.419	-0.002256
1.42	-0.002252
1.421	-0.002374
1.422	-0.002236
1.423	-0.002203
1.424	-0.002254
1.425	-0.002404
1.426	-0.002219
1.427	-0.002212
1.428	-0.002211
1.429	-0.002252
1.43	-0.002249
1.431	-0.002273
1.432	-0.002204
1.433	-0.002254
1.434	-0.00232
1.435	-0.00232
1.436	-0.002292
1.437	-0.002204
1.438	-0.002193
1.439	-0.002292
1.44	-0.002241
1.441	-0.002353
1.442	-0.002257
1.443	-0.00223
1.444	-0.002171
1.445	-0.002171
1.446	-0.00222
1.447	-0.002385
1.448	-0.002194
1.449	-0.002308
1.45	-0.002262
1.451	-0.002261
1.452	-0.002209
1.453	-0.002227
1.454	-0.002295
1.455	-0.002284
1.456	-0.002345
1.457	-0.002207
1.458	-0.002205
1.459	-0.002341
1.46	-0.002149
1.461	-0.002278
1.462	-0.002202
1.463	-0.002271
1.464	-0.002203
1.465	-0.002246
1.466	-0.002232
1.467	-0.002211
1.468	-0.002304
1.469	-0.002219
1.47	-0.002262
1.471	-0.002197
1.472	-0.002284
1.473	-0.002335
1.474	-0.002131
1.475	-0.002286
1.476	-0.002318
1.477	-0.002283
1.478	-0.002306
1.479	-0.002285
1.48	-0.002272
1.481	-0.002308
1.482	-0.002346
1.483	-0.002232
1.484	-0.002232
1.485	-0.002287
1.486	-0.002296
1.487	-0.002289
1.488	-0.002262
1.489	-0.00228
1.49	-0.002301
1.491	-0.002243
1.492	-0.002259
1.493	-0.002273
1.494	-0.002272
1.495	-0.002248
1.496	-0.002232
1.497	-0.002258
1.498	-0.002227
1.499	-0.002265
1.5	-0.002331
1.501	-0.002239
1.502	-0.002232
1.503	-0.002182
1.504	-0.002308
1.505	-0.002251
1.506	-0.002311
1.507	-0.002224
1.508	-0.002228
1.509	-0.002297
1.51	-0.00226
1.511	-0.002254
1.512	-0.002288
1.513	-0.002237
1.514	-0.002235
1.515	-0.002292
1.516	-0.002232
1.517	-0.002284
1.518	-0.002265
1.519	-0.002259
1.52	-0.002284
1.521	-0.002123
1.522	-0.002301
1.523	-0.002205
1.524	-0.002268
1.525	-0.002261
1.526	-0.002296
1.527	-0.00223
1.528	-0.002194
1.529	-0.0023
1.53	-0.002283
1.531	-0.002284
1.532	-0.002248
1.533	-0.002208
1.534	-0.002308
1.535	-0.002216
1.536	-0.0022
1.537	-0.002343
1.538	-0.002166
1.539	-0.002216
1.54	-0.002182
1.541	-0.0023
1.542	-0.002279
1.543	-0.002268
1.544	-0.002236
1.545	-0.002338
1.546	-0.002273
1.547	-0.002371
1.548	-0.002259
1.549	-0.002159
1.55	-0.002219
1.551	-0.002215
1.552	-0.002248
1.553	-0.002344
1.554	-0.002246
1.555	-0.002273
1.556	-0.00226
1.557	-0.002251
1.558	-0.002284
1.559	-0.00222
1.56	-0.002191
1.561	-0.002264
1.562	-0.002244
1.563	-0.002295
1.564	-0.002304
1.565	-0.002238
1.566	-0.0023
1.567	-0.002374
1.568	-0.002284
1.569	-0.002394
1.57	-0.002302
1.571	-0.002261
1.572	-0.002174
1.573	-0.002221
1.574	-0.002242
1.575	-0.002237
1.576	-0.002243
1.577	-0.002309
1.578	-0.002271
1.579	-0.002311
1.58	-0.002232
1.581	-0.00235
1.582	-0.002209
1.583	-0.002179
1.584	-0.002246
1.585	-0.002141
1.586	-0.002191
1.587	-0.002191
1.588	-0.002121
1.589	-0.002187
1.59	-0.002288
1.591	-0.002307
1.592	-0.00224
1.593	-0.002227
1.594	-0.002153
1.595	-0.002291
1.596	-0.002259
1.597	-0.002253
1.598	-0.002117
1.599	-0.002228
1.6	-0.002209
1.601	-0.002204
1.602	-0.002196
1.603	-0.002246
1.604	-0.002131
1.605	-0.002231
1.606	-0.002123
1.607	-0.002212
1.608	-0.002232
1.609	-0.00228
1.61	-0.002286
1.611	-0.002257
1.612	-0.00231
1.613	-0.00224
1.614	-0.002232
1.615	-0.002312
1.616	-0.002216
1.617	-0.002224
1.618	-0.002273
1.619	-0.002132
1.62	-0.002103
1.621	-0.002242
1.622	-0.002226
1.623	-0.002201
1.624	-0.002287
1.625	-0.002133
1.626	-0.002245
1.627	-0.002233
1.628	-0.002211
1.629	-0.002216
1.63	-0.002171
1.631	-0.002144
1.632	-0.002227
1.633	-0.002191
1.634	-0.0023
1.635	-0.002218
1.636	-0.002232
1.637	-0.002288
1.638	-0.002139
1.639	-0.002187
1.64	-0.002314
1.641	-0.002298
1.642	-0.002304
1.643	-0.002206
1.644	-0.002211
1.645	-0.002254
1.646	-0.002167
1.647	-0.002215
1.648	-0.002232
1.649	-0.002262
1.65	-0.002165
1.651	-0.002267
1.652	-0.002187
1.653	-0.002301
1.654	-0.002315
1.655	-0.002289
1.656	-0.002254
1.657	-0.00225
1.658	-0.002161
1.659	-0.002335
1.66	-0.002236
1.661	-0.002296
1.662	-0.002187
1.663	-0.00224
1.664	-0.002222
1.665	-0.002332
1.666	-0.002286
1.667	-0.002377
1.668	-0.002159
1.669	-0.002333
1.67	-0.002258
1.671	-0.002278
1.672	-0.002144
1.673	-0.002278
1.674	-0.002134
1.675	-0.002329
1.676	-0.002214
1.677	-0.002203
1.678	-0.002299
1.679	-0.002256
1.68	-0.002226
1.681	-0.002237
1.682	-0.002263
1.683	-0.002181
1.684	-0.002332
1.685	-0.002293
1.686	-0.002168
1.687	-0.00226
1.688	-0.002243
1.689	-0.002321
1.69	-0.002232
1.691	-0.002298
1.692	-0.002338
1.693	-0.00234
1.694	-0.002262
1.695	-0.00239
1.696	-0.002216
1.697	-0.002274
1.698	-0.002206
1.699	-0.002233
1.7	-0.002297
1.701	-0.002223
1.702	-0.002317
1.703	-0.002203
1.704	-0.002281
1.705	-0.00233
1.706	-0.0024
1.707	-0.002292
1.708	-0.002222
1.709	-0.002158
1.71	-0.002322
1.711	-0.002159
1.712	-0.00232
1.713	-0.002248
1.714	-0.002244
1.715	-0.002203
1.716	-0.002294
1.717	-0.002316
1.718	-0.002244
1.719	-0.002316
1.72	-0.002239
1.721	-0.002301
1.722	-0.002252
1.723	-0.00225
1.724	-0.002288
1.725	-0.002245
1.726	-0.002252
1.727	-0.002266
1.728	-0.002213
1.729	-0.002185
1.73	-0.002344
1.731	-0.002254
1.732	-0.002306
1.733	-0.002263
1.734	-0.002324
1.735	-0.002402
1.736	-0.002289
1.737	-0.002307
1.738	-0.002333
1.739	-0.002288
1.74	-0.002416
1.741	-0.002325
1.742	-0.002351
1.743	-0.002401
1.744	-0.002471
1.745	-0.002301
1.746	-0.002409
1.747	-0.002427
1.748	-0.002417
1.749	-0.002382
1.75	-0.002299
1.751	-0.00219
1.752	-0.002335
1.753	-0.00223
1.754	-0.002116
1.755	-0.002104
1.756	-0.002198
1.757	-0.002112
1.758	-0.002105
1.759	-0.001937
1.76	-0.001882
1.761	-0.001913
1.762	-0.0018
1.763	-0.001737
1.764	-0.001795
1.765	-0.001767
1.766	-0.001684
1.767	-0.00155
1.768	-0.001716
1.769	-0.001561
1.77	-0.001586
1.771	-0.001468
1.772	-0.001605
1.773	-0.001498
1.774	-0.001629
1.775	-0.001565
1.776	-0.001573
1.777	-0.001682
1.778	-0.001562
1.779	-0.001593
1.78	-0.001648
1.781	-0.001802
1.782	-0.001743
1.783	-0.001775
1.784	-0.001864
1.785	-0.001876
1.786	-0.001844
1.787	-0.001931
1.788	-0.001964
1.789	-0.002004
1.79	-0.001913
1.791	-0.002072
1.792	-0.001998
1.793	-0.002063
1.794	-0.002126
1.795	-0.002129
1.796	-0.002127
1.797	-0.002122
1.798	-0.002191
1.799	-0.002272
1.8	-0.002131
1.801	-0.002196
1.802	-0.002179
1.803	-0.00223
1.804	-0.002272
1.805	-0.002217
1.806	-0.002251
1.807	-0.002284
1.808	-0.002121
1.809	-0.002209
1.81	-0.002233
1.811	-0.002254
1.812	-0.002203
1.813	-0.002293
1.814	-0.002253
1.815	-0.002234
1.816	-0.002176
1.817	-0.002185
1.818	-0.002224
1.819	-0.002179
1.82	-0.002284
1.821	-0.002316
1.822	-0.002338
1.823	-0.002313
1.824	-0.002214
1.825	-0.002336
1.826	-0.002214
1.827	-0.002356
1.828	-0.002199
1.829	-0.002212
1.83	-0.002262
1.831	-0.002302
1.832	-0.002198
1.833	-0.002381
1.834	-0.002273
1.835	-0.002248
1.836	-0.002264
1.837	-0.002316
1.838	-0.002264
1.839	-0.002255
1.84	-0.002225
1.841	-0.002293
1.842	-0.002274
1.843	-0.002341
1.844	-0.002306
1.845	-0.002279
1.846	-0.002268
1.847	-0.002259
1.848	-0.002337
1.849	-0.002269
1.85	-0.002249
1.851	-0.002311
1.852	-0.002328
1.853	-0.002224
1.854	-0.00232
1.855	-0.002221
1.856	-0.002199
1.857	-0.00234
1.858	-0.002221
1.859	-0.002319
1.86	-0.002274
1.861	-0.002262
1.862	-0.00228
1.863	-0.002211
1.864	-0.002336
1.865	-0.002316
1.866	-0.002365
1.867	-0.002327
1.868	-0.002349
1.869	-0.002275
1.87	-0.002277
1.871	-0.002263
1.872	-0.002175
1.873	-0.0023
1.874	-0.0023
1.875	-0.002217
1.876	-0.002284
1.877	-0.002282
1.878	-0.002274
1.879	-0.002244
1.88	-0.002281
1.881	-0.002211
1.882	-0.002203
1.883	-0.002286
1.884	-0.002285
1.885	-0.002272
1.886	-0.002329
1.887	-0.002288
1.888	-0.002252
1.889	-0.002382
1.89	-0.002228
1.891	-0.0022
1.892	-0.00224
1.893	-0.002276
1.894	-0.002287
1.895	-0.002251
1.896	-0.002264
1.897	-0.002292
1.898	-0.002166
1.899	-0.002297
1.9	-0.002321
1.901	-0.002344
1.902	-0.002332
1.903	-0.00224
1.904	-0.002219
1.905	-0.002244
1.906	-0.002281
1.907	-0.002236
1.908	-0.002252
1.909	-0.002145
1.91	-0.002229
1.911	-0.002275
1.912	-0.002202
1.913	-0.002291
1.914	-0.002228
1.915	-0.002306
1.916	-0.002236
1.917	-0.002215
1.918	-0.002169
1.919	-0.002267
1.92	-0.002255
1.921	-0.002193
1.922	-0.002255
1.923	-0.002158
1.924	-0.002302
1.925	-0.002254
1.926	-0.002244
1.927	-0.002183
1.928	-0.002192
1.929	-0.002229
1.93	-0.002248
1.931	-0.002269
1.932	-0.002237
1.933	-0.002271
1.934	-0.002362
1.935	-0.002262
1.936	-0.00228
1.937	-0.002266
1.938	-0.002243
1.939	-0.002297
1.94	-0.002197
1.941	-0.002216
1.942	-0.00217
1.943	-0.002319
1.944	-0.002187
1.945	-0.002232
1.946	-0.002262
1.947	-0.002241
1.948	-0.002252
1.949	-0.002147
1.95	-0.002116
1.951	-0.002277
1.952	-0.002268
1.953	-0.002186
1.954	-0.002371
1.955	-0.002184
1.956	-0.002244
1.957	-0.002275
1.958	-0.002261
1.959	-0.002211
1.96	-0.002206
1.961	-0.002246
1.962	-0.002244
1.963	-0.002209
1.964	-0.002302
1.965	-0.002284
1.966	-0.002062
1.967	-0.002189
1.968	-0.002233
1.969	-0.0022
1.97	-0.002244
1.971	-0.002195
1.972	-0.002239
1.973	-0.00211
1.974	-0.002301
1.975	-0.002175
1.976	-0.002191
1.977	-0.002252
1.978	-0.002247
1.979	-0.002191
1.98	-0.002171
1.981	-0.002241
1.982	-0.002205
1.983	-0.00224
1.984	-0.002176
1.985	-0.00229
1.986	-0.002172
1.987	-0.002295
1.988	-0.002219
1.989	-0.002226
1.99	-0.002193
1.991	-0.002248
1.992	-0.002028
1.993	-0.002132
1.994	-0.002256
1.995	-0.002136
1.996	-0.002224
1.997	-0.002272
1.998	-0.002211
1.999	-0.002191
2	-0.002207
2.001	-0.002203
2.002	-0.002129
2.003	-0.002197
2.004	-0.002227
2.005	-0.00211
2.006	-0.002173
2.007	-0.002214
2.008	-0.002143
2.009	-0.002167
2.01	-0.002137
2.011	-0.002135
2.012	-0.002203
2.013	-0.00227
2.014	-0.00215
2.015	-0.002167
2.016	-0.002161
2.017	-0.002195
2.018	-0.002117
2.019	-0.002158
2.02	-0.002174
2.021	-0.002212
2.022	-0.00224
2.023	-0.002206
2.024	-0.002251
2.025	-0.002163
2.026	-0.00217
2.027	-0.002241
2.028	-0.002284
2.029	-0.002147
2.03	-0.002115
2.031	-0.002174
2.032	-0.002197
2.033	-0.002236
2.034	-0.002195
2.035	-0.002163
2.036	-0.002216
2.037	-0.00228
2.038	-0.002212
2.039	-0.002209
2.04	-0.002199
2.041	-0.002211
2.042	-0.002183
2.043	-0.002107
2.044	-0.002113
2.045	-0.00227
2.046	-0.002277
2.047	-0.002271
2.048	-0.002272
2.049	-0.002298
2.05	-0.002225
2.051	-0.002307
2.052	-0.002248
2.053	-0.00224
2.054	-0.002269
2.055	-0.002286
2.056	-0.002342
2.057	-0.002329
2.058	-0.002231
2.059	-0.002257
2.06	-0.002236
2.061	-0.002256
2.062	-0.002345
2.063	-0.002189
2.064	-0.002324
2.065	-0.002256
2.066	-0.002306
2.067	-0.002221
2.068	-0.002178
2.069	-0.002284
2.07	-0.00229
2.071	-0.002237
2.072	-0.002288
2.073	-0.002261
2.074	-0.002372
2.075	-0.002389
2.076	-0.002331
2.077	-0.002324
2.078	-0.002308
2.079	-0.0023
2.08	-0.002156
2.081	-0.002229
2.082	-0.002302
2.083	-0.002194
2.084	-0.002319
2.085	-0.002331
2.086	-0.002252
2.087	-0.002283
2.088	-0.002307
2.089	-0.002284
2.09	-0.002283
2.091	-0.002236
2.092	-0.00226
2.093	-0.002286
2.094	-0.002319
2.095	-0.002228
2.096	-0.00224
2.097	-0.002161
2.098	-0.002305
2.099	-0.002307
2.1	-0.002169
2.101	-0.002313
2.102	-0.002312
2.103	-0.002314
2.104	-0.002195
2.105	-0.002237
2.106	-0.002183
2.107	-0.002294
2.108	-0.002234
2.109	-0.002236
2.11	-0.00226
2.111	-0.002328
2.112	-0.002258
2.113	-0.002341
2.114	-0.002266
2.115	-0.002304
2.116	-0.002283
2.117	-0.002218
2.118	-0.002324
2.119	-0.002251
2.12	-0.002386
2.121	-0.002332
2.122	-0.002152
2.123	-0.002328
2.124	-0.002357
2.125	-0.002268
2.126	-0.002256
2.127	-0.002267
2.128	-0.002297
2.129	-0.002215
2.13	-0.002325
2.131	-0.002286
2.132	-0.002255
2.133	-0.002226
2.134	-0.00218
2.135	-0.002283
2.136	-0.002341
2.137	-0.002288
2.138	-0.002266
2.139	-0.002288
2.14	-0.002327
2.141	-0.002326
2.142	-0.002292
2.143	-0.002235
2.144	-0.002232
2.145	-0.002217
2.146	-0.002257
2.147	-0.002273
2.148	-0.00228
2.149	-0.002296
2.15	-0.002239
2.151	-0.00231
2.152	-0.002323
2.153	-0.002309
2.154	-0.002279
2.155	-0.002245
2.156	-0.002239
2.157	-0.002287
2.158	-0.002225
2.159	-0.00233
2.16	-0.002161
2.161	-0.002267
2.162	-0.002284
2.163	-0.002297
2.164	-0.002335
2.165	-0.002257
2.166	-0.002272
2.167	-0.0022
2.168	-0.00228
2.169	-0.002327
2.17	-0.002278
2.171	-0.002236
2.172	-0.002278
2.173	-0.002328
2.174	-0.002273
2.175	-0.002256
2.176	-0.002211
2.177	-0.002283
2.178	-0.002252
2.179	-0.002195
2.18	-0.002179
2.181	-0.002253
2.182	-0.002268
2.183	-0.002296
2.184	-0.002329
2.185	-0.002207
2.186	-0.002306
2.187	-0.002304
2.188	-0.002265
2.189	-0.002318
2.19	-0.002262
2.191	-0.00224
2.192	-0.002229
2.193	-0.002235
2.194	-0.002272
2.195	-0.002238
2.196	-0.002365
2.197	-0.002341
2.198	-0.002288
2.199	-0.002203
2.2	-0.002281
2.201	-0.00227
2.202	-0.002236
2.203	-0.002191
2.204	-0.002306
2.205	-0.002263
2.206	-0.002235
2.207	-0.002231
2.208	-0.002187
2.209	-0.002168
2.21	-0.002235
2.211	-0.002253
2.212	-0.002248
2.213	-0.002228
2.214	-0.002334
2.215	-0.002373
2.216	-0.002273
2.217	-0.002257
2.218	-0.002196
2.219	-0.002248
2.22	-0.002216
2.221	-0.002286
2.222	-0.002225
2.223	-0.00223
2.224	-0.002267
2.225	-0.002385
2.226	-0.002333
2.227	-0.002303
2.228	-0.002263
2.229	-0.002306
2.23	-0.002278
2.231	-0.002306
2.232	-0.002288
2.233	-0.002263
2.234	-0.002239
2.235	-0.002267
2.236	-0.002336
2.237	-0.002311
2.238	-0.002337
2.239	-0.002278
2.24	-0.002235
2.241	-0.002312
2.242	-0.002282
2.243	-0.002211
2.244	-0.002193
2.245	-0.002256
2.246	-0.002224
2.247	-0.002147
2.248	-0.002236
2.249	-0.002228
2.25	-0.002355
2.251	-0.002327
2.252	-0.002292
2.253	-0.002228
2.254	-0.002343
2.255	-0.002239
2.256	-0.002155
2.257	-0.002273
2.258	-0.002152
2.259	-0.002209
2.26	-0.002311
2.261	-0.0023
2.262	-0.002246
2.263	-0.002295
2.264	-0.002279
2.265	-0.002248
2.266	-0.002204
2.267	-0.002321
2.268	-0.00239
2.269	-0.002245
2.27	-0.0023
2.271	-0.002188
2.272	-0.002287
2.273	-0.0023
2.274	-0.002307
2.275	-0.002256
2.276	-0.002284
2.277	-0.002273
2.278	-0.002264
2.279	-0.002322
2.28	-0.002219
2.281	-0.002341
2.282	-0.002258
2.283	-0.002248
2.284	-0.002194
2.285	-0.002314
2.286	-0.002188
2.287	-0.002286
2.288	-0.002249
2.289	-0.002344
2.29	-0.002314
2.291	-0.002236
2.292	-0.002254
2.293	-0.002273
2.294	-0.002334
2.295	-0.002228
2.296	-0.002284
2.297	-0.002297
2.298	-0.002228
2.299	-0.002242
2.3	-0.002321
2.301	-0.002254
2.302	-0.002333
2.303	-0.002242
2.304	-0.002332
2.305	-0.002287
2.306	-0.002232
2.307	-0.002217
2.308	-0.002213
2.309	-0.002233
2.31	-0.002335
2.311	-0.002317
2.312	-0.002155
2.313	-0.002384
2.314	-0.002267
2.315	-0.002269
2.316	-0.00231
2.317	-0.002233
2.318	-0.00226
2.319	-0.00235
2.32	-0.002299
2.321	-0.002288
2.322	-0.002279
2.323	-0.002284
2.324	-0.002351
2.325	-0.002272
2.326	-0.002312
2.327	-0.002298
2.328	-0.002248
2.329	-0.002351
2.33	-0.002268
2.331	-0.002202
2.332	-0.00228
2.333	-0.002185
2.334	-0.002312
2.335	-0.002183
2.336	-0.002211
2.337	-0.00221
2.338	-0.002339
2.339	-0.002217
2.34	-0.00224
2.341	-0.002223
2.342	-0.002346
2.343	-0.002274
2.344	-0.002221
2.345	-0.002143
2.346	-0.002202
2.347	-0.002195
2.348	-0.002251
2.349	-0.002202
2.35	-0.002143
2.351	-0.002256
2.352	-0.002225
2.353	-0.002232
2.354	-0.00228
2.355	-0.002129
2.356	-0.002272
2.357	-0.002259
2.358	-0.002266
2.359	-0.002217
2.36	-0.002223
2.361	-0.002131
2.362	-0.00222
2.363	-0.002147
2.364	-0.002213
2.365	-0.002147
2.366	-0.002158
2.367	-0.002262
2.368	-0.002272
2.369	-0.00223
2.37	-0.002244
2.371	-0.002332
2.372	-0.002205
2.373	-0.002195
2.374	-0.00223
2.375	-0.002292
2.376	-0.002278
2.377	-0.002101
2.378	-0.002237
2.379	-0.002326
2.38	-0.00221
2.381	-0.00224
2.382	-0.002244
2.383	-0.002213
2.384	-0.002237
2.385	-0.002231
2.386	-0.002135
2.387	-0.002211
2.388	-0.002179
2.389	-0.002343
2.39	-0.002229
2.391	-0.002214
2.392	-0.002196
2.393	-0.002261
2.394	-0.002232
2.395	-0.002199
2.396	-0.002253
2.397	-0.002271
2.398	-0.002251
2.399	-0.002262
2.4	-0.002232
2.401	-0.002236
2.402	-0.002289
2.403	-0.002227
2.404	-0.002251
2.405	-0.002304
2.406	-0.002261
2.407	-0.002247
2.408	-0.002234
2.409	-0.002275
2.41	-0.002203
2.411	-0.002248
2.412	-0.002243
2.413	-0.002397
2.414	-0.002252
2.415	-0.002315
2.416	-0.002242
2.417	-0.002342
2.418	-0.002333
2.419	-0.002253
2.42	-0.0023
2.421	-0.002242
2.422	-0.002278
2.423	-0.002227
2.424	-0.002255
2.425	-0.002344
2.426	-0.002215
2.427	-0.002253
2.428	-0.002248
2.429	-0.002377
2.43	-0.002311
2.431	-0.002252
2.432	-0.002308
2.433	-0.002304
2.434	-0.002325
2.435	-0.002278
2.436	-0.002292
2.437	-0.002254
2.438	-0.002195
2.439	-0.002343
2.44	-0.002248
2.441	-0.002356
2.442	-0.002307
2.443	-0.002304
2.444	-0.002177
2.445	-0.002258
2.446	-0.00226
2.447	-0.002203
2.448	-0.002272
2.449	-0.002248
2.45	-0.002145
2.451	-0.002191
2.452	-0.002275
2.453	-0.002196
2.454	-0.002214
2.455	-0.002227
2.456	-0.002262
2.457	-0.002316
2.458	-0.00221
2.459	-0.00232
2.46	-0.002221
2.461	-0.002308
2.462	-0.002328
2.463	-0.002159
2.464	-0.002264
2.465	-0.002232
2.466	-0.002173
2.467	-0.002228
2.468	-0.002255
2.469	-0.002329
2.47	-0.002299
2.471	-0.002259
2.472	-0.002266
2.473	-0.002152
2.474	-0.002266
2.475	-0.002363
2.476	-0.002206
2.477	-0.002275
2.478	-0.002195
2.479	-0.002246
2.48	-0.002252
2.481	-0.002256
2.482	-0.002202
2.483	-0.002211
2.484	-0.002327
2.485	-0.002216
2.486	-0.002326
2.487	-0.002384
2.488	-0.002451
2.489	-0.002315
2.49	-0.00235
2.491	-0.002297
2.492	-0.002316
2.493	-0.002393
2.494	-0.00241
2.495	-0.002386
2.496	-0.002427
2.497	-0.002434
2.498	-0.002368
2.499	-0.002284
2.5	-0.002335
2.501	-0.00228
2.502	-0.002259
2.503	-0.002242
2.504	-0.002108
2.505	-0.002236
2.506	-0.002138
2.507	-0.002068
2.508	-0.002056
2.509	-0.002021
2.51	-0.001935
2.511	-0.001892
2.512	-0.001904
2.513	-0.001824
2.514	-0.001812
2.515	-0.001632
2.516	-0.001727
2.517	-0.001712
2.518	-0.001622
2.519	-0.001533
2.52	-0.001599
2.521	-0.00151
2.522	-0.001482
2.523	-0.00155
2.524	-0.001557
2.525	-0.001546
2.526	-0.001528
2.527	-0.001584
2.528	-0.001613
2.529	-0.001746
2.53	-0.001674
2.531	-0.00168
2.532	-0.001765
2.533	-0.001847
2.534	-0.001795
2.535	-0.001874
2.536	-0.001884
2.537	-0.002044
2.538	-0.00188
2.539	-0.001896
2.54	-0.001904
2.541	-0.001959
2.542	-0.002132
2.543	-0.00206
2.544	-0.002096
2.545	-0.002074
2.546	-0.002153
2.547	-0.002222
2.548	-0.002219
2.549	-0.002223
2.55	-0.002053
2.551	-0.00213
2.552	-0.002197
2.553	-0.002275
2.554	-0.002119
2.555	-0.002194
2.556	-0.002233
2.557	-0.002188
2.558	-0.00226
2.559	-0.002228
2.56	-0.002224
2.561	-0.002207
2.562	-0.002246
2.563	-0.002277
2.564	-0.002284
2.565	-0.002181
2.566	-0.002196
2.567	-0.002292
2.568	-0.002189
2.569	-0.002326
2.57	-0.002297
2.571	-0.00225
2.572	-0.002319
2.573	-0.00235
2.574	-0.002292
2.575	-0.00229
2.576	-0.002284
2.577	-0.002246
2.578	-0.002266
2.579	-0.002192
2.58	-0.002308
2.581	-0.002267
2.582	-0.002292
2.583	-0.002297
2.584	-0.002269
2.585	-0.002248
2.586	-0.002312
2.587	-0.002276
2.588	-0.002343
2.589	-0.002242
2.59	-0.002279
2.591	-0.002271
2.592	-0.002345
2.593	-0.002268
2.594	-0.002243
2.595	-0.002215
2.596	-0.002248
2.597	-0.002338
2.598	-0.002269
2.599	-0.002301
2.6	-0.002218
2.601	-0.002308
2.602	-0.002306
2.603	-0.0023
2.604	-0.002397
2.605	-0.002329
2.606	-0.002357
2.607	-0.002259
2.608	-0.002178
2.609	-0.002255
2.61	-0.002165
2.611	-0.00231
2.612	-0.002271
2.613	-0.002284
2.614	-0.00228
2.615	-0.002277
2.616	-0.002236
2.617	-0.002363
2.618	-0.002254
2.619	-0.002361
2.62	-0.002181
2.621	-0.002194
2.622	-0.0023
2.623	-0.002197
2.624	-0.002257
2.625	-0.002293
2.626	-0.002258
2.627	-0.002297
2.628	-0.002276
2.629	-0.00224
2.63	-0.002268
2.631	-0.002218
2.632	-0.002368
2.633	-0.002273
2.634	-0.002319
2.635	-0.002292
2.636	-0.002296
2.637	-0.002286
2.638	-0.002162
2.639	-0.002317
2.64	-0.002252
2.641	-0.002174
2.642	-0.002276
2.643	-0.002189
2.644	-0.002227
2.645	-0.002269
2.646	-0.002199
2.647	-0.002273
2.648	-0.002329
2.649	-0.002264
2.65	-0.002272
2.651	-0.002312
2.652	-0.002296
2.653	-0.002285
2.654	-0.002281
2.655	-0.002186
2.656	-0.00216
2.657	-0.00219
2.658	-0.002238
2.659	-0.002288
2.66	-0.002252
2.661	-0.0023
2.662	-0.002157
2.663	-0.002186
2.664	-0.002208
2.665	-0.002241
2.666	-0.002152
2.667	-0.002243
2.668	-0.002127
2.669	-0.002232
2.67	-0.002261
2.671	-0.002224
2.672	-0.002258
2.673	-0.002242
2.674	-0.002283
2.675	-0.002331
2.676	-0.002329
2.677	-0.002228
2.678	-0.002293
2.679	-0.002218
2.68	-0.002185
2.681	-0.002203
2.682	-0.002249
2.683	-0.002171
2.684	-0.002183
2.685	-0.002272
2.686	-0.002256
2.687	-0.002356
2.688	-0.002236
2.689	-0.002311
2.69	-0.002305
2.691	-0.002221
2.692	-0.002171
2.693	-0.002175
2.694	-0.002236
2.695	-0.002194
2.696	-0.00224
2.697	-0.002214
2.698	-0.002233
2.699	-0.002292
2.7	-0.002264
2.701	-0.002147
2.702	-0.00222
2.703	-0.002251
2.704	-0.002219
2.705	-0.002292
2.706	-0.002153
2.707	-0.002146
2.708	-0.002209
2.709	-0.002282
2.71	-0.002186
2.711	-0.002218
2.712	-0.002275
2.713	-0.002245
2.714	-0.002252
2.715	-0.002237
2.716	-0.002172
2.717	-0.002255
2.718	-0.002212
2.719	-0.002276
2.72	-0.002161
2.721	-0.002291
2.722	-0.002177
2.723	-0.002199
2.724	-0.002212
2.725	-0.002119
2.726	-0.002183
2.727	-0.002176
2.728	-0.002208
2.729	-0.00227
2.73	-0.002191
2.731	-0.002133
2.732	-0.0022
2.733	-0.00213
2.734	-0.002152
2.735	-0.002268
2.736	-0.002281
2.737	-0.002273
2.738	-0.002219
2.739	-0.002178
2.74	-0.002145
2.741	-0.002254
2.742	-0.002177
2.743	-0.002076
2.744	-0.002227
2.745	-0.002341
2.746	-0.002207
2.747	-0.002122
2.748	-0.002202
2.749	-0.002207
2.75	-0.002165
2.751	-0.002233
2.752	-0.002138
2.753	-0.002187
2.754	-0.002101
2.755	-0.002151
2.756	-0.002082
2.757	-0.002086
2.758	-0.002107
2.759	-0.002206
2.76	-0.002252
2.761	-0.002229
2.762	-0.002246
2.763	-0.002163
2.764	-0.00216
2.765	-0.002195
2.766	-0.002096
2.767	-0.002187
2.768	-0.002056
2.769	-0.002224
2.77	-0.002147
2.771	-0.00232
2.772	-0.002169
2.773	-0.002188
2.774	-0.002151
2.775	-0.002205
2.776	-0.002123
2.777	-0.002172
2.778	-0.002164
2.779	-0.002237
2.78	-0.002183
2.781	-0.002143
2.782	-0.002191
2.783	-0.002216
2.784	-0.002159
2.785	-0.002225
2.786	-0.002163
2.787	-0.002205
2.788	-0.002135
2.789	-0.002231
2.79	-0.002237
2.791	-0.00231
2.792	-0.002171
2.793	-0.002135
2.794	-0.002252
2.795	-0.002154
2.796	-0.0023
2.797	-0.00227
2.798	-0.002298
2.799	-0.00226
2.8	-0.002183
2.801	-0.002283
2.802	-0.002297
2.803	-0.002268
2.804	-0.002256
2.805	-0.002239
2.806	-0.002284
2.807	-0.002296
2.808	-0.002236
2.809	-0.002352
2.81	-0.002373
2.811	-0.002282
2.812	-0.002262
2.813	-0.002288
2.814	-0.002296
2.815	-0.002271
2.816	-0.002142
2.817	-0.002271
2.818	-0.002301
2.819	-0.002374
2.82	-0.002262
2.821	-0.002328
2.822	-0.002238
2.823	-0.002289
2.824	-0.002279
2.825	-0.002232
2.826	-0.00222
2.827	-0.002293
2.828	-0.002324
2.829	-0.002349
2.83	-0.002361
2.831	-0.002304
2.832	-0.002163
2.833	-0.002213
2.834	-0.002285
2.835	-0.002311
2.836	-0.002273
2.837	-0.002297
2.838	-0.002188
2.839	-0.002258
2.84	-0.002254
2.841	-0.002195
2.842	-0.002305
2.843	-0.002385
2.844	-0.00226
2.845	-0.00236
2.846	-0.002203
2.847	-0.002245
2.848	-0.002246
2.849	-0.002233
2.85	-0.002256
2.851	-0.00228
2.852	-0.002308
2.853	-0.002287
2.854	-0.002344
2.855	-0.002279
2.856	-0.002265
2.857	-0.002265
2.858	-0.002278
2.859	-0.002283
2.86	-0.002153
2.861	-0.002225
2.862	-0.002199
2.863	-0.002249
2.864	-0.002239
2.865	-0.002265
2.866	-0.002336
2.867	-0.002314
2.868	-0.002299
2.869	-0.002252
2.87	-0.002175
2.871	-0.00228
2.872	-0.002341
2.873	-0.00232
2.874	-0.00228
2.875	-0.002284
2.876	-0.002317
2.877	-0.002236
2.878	-0.002338
2.879	-0.002281
2.88	-0.002232
2.881	-0.002253
2.882	-0.002303
2.883	-0.002232
2.884	-0.002286
2.885	-0.002267
2.886	-0.002288
2.887	-0.002385
2.888	-0.002134
2.889	-0.002378
2.89	-0.00227
2.891	-0.002217
2.892	-0.00232
2.893	-0.002285
2.894	-0.002273
2.895	-0.002195
2.896	-0.002245
2.897	-0.002304
2.898	-0.002211
2.899	-0.002228
2.9	-0.002292
2.901	-0.00228
2.902	-0.002312
2.903	-0.002388
2.904	-0.002305
2.905	-0.002325
2.906	-0.002268
2.907	-0.00224
2.908	-0.002144
2.909	-0.002379
2.91	-0.00231
2.911	-0.00237
2.912	-0.002199
2.913	-0.002302
2.914	-0.002282
2.915	-0.002239
2.916	-0.002258
2.917	-0.002303
2.918	-0.002286
2.919	-0.002275
2.92	-0.002373
2.921	-0.00214
2.922	-0.002244
2.923	-0.002157
2.924	-0.002276
2.925	-0.002252
2.926	-0.002204
2.927	-0.002323
2.928	-0.002286
2.929	-0.002196
2.93	-0.002208
2.931	-0.002325
2.932	-0.002284
2.933	-0.002323
2.934	-0.002296
2.935	-0.002188
2.936	-0.002264
2.937	-0.002271
2.938	-0.002196
2.939	-0.002284
2.94	-0.00228
2.941	-0.002276
2.942	-0.002276
2.943	-0.002327
2.944	-0.00233
2.945	-0.002221
2.946	-0.002281
2.947	-0.002266
2.948	-0.002215
2.949	-0.002225
2.95	-0.002188
2.951	-0.002272
2.952	-0.002396
2.953	-0.002356
2.954	-0.002245
2.955	-0.002238
2.956	-0.002216
2.957	-0.002313
2.958	-0.002247
2.959	-0.002246
2.96	-0.002232
2.961	-0.002178
2.962	-0.002238
2.963	-0.002219
2.964	-0.002324
2.965	-0.002282
2.966	-0.002375
2.967	-0.002287
2.968	-0.00232
2.969	-0.002239
2.97	-0.002212
2.971	-0.002285
2.972	-0.002205
2.973	-0.002232
2.974	-0.002239
2.975	-0.002273
2.976	-0.00224
2.977	-0.002316
2.978	-0.002263
2.979	-0.002254
2.98	-0.002214
2.981	-0.002277
2.982	-0.002255
2.983	-0.002211
2.984	-0.002163
2.985	-0.002305
2.986	-0.002199
2.987	-0.002285
2.988	-0.002237
2.989	-0.002215
2.99	-0.002235
2.991	-0.002299
2.992	-0.002182
2.993	-0.002288
2.994	-0.002214
2.995	-0.002192
2.996	-0.002304
2.997	-0.00226
2.998	-0.002276
2.999	-0.002312
3	-0.002299
3.001	-0.002369
3.002	-0.002288
3.003	-0.002233
3.004	-0.002349
3.005	-0.002213
3.006	-0.00228
3.007	-0.00228
3.008	-0.002277
3.009	-0.002167
3.01	-0.00225
3.011	-0.00221
3.012	-0.002167
3.013	-0.002291
3.014	-0.002322
3.015	-0.002282
3.016	-0.002301
3.017	-0.002237
3.018	-0.002382
3.019	-0.002219
3.02	-0.002236
3.021	-0.002217
3.022	-0.002167
3.023	-0.002288
3.024	-0.002237
3.025	-0.002248
3.026	-0.002288
3.027	-0.002344
3.028	-0.002219
3.029	-0.002325
3.03	-0.002265
3.031	-0.002232
3.032	-0.002226
3.033	-0.002239
3.034	-0.002232
3.035	-0.002317
3.036	-0.00228
3.037	-0.002407
3.038	-0.002257
3.039	-0.002276
3.04	-0.002224
3.041	-0.002289
3.042	-0.002306
3.043	-0.002244
3.044	-0.002179
3.045	-0.002213
3.046	-0.002207
3.047	-0.002219
3.048	-0.002295
3.049	-0.002257
3.05	-0.00223
3.051	-0.002301
3.052	-0.002272
3.053	-0.00238
3.054	-0.002259
3.055	-0.0023
3.056	-0.00224
3.057	-0.002255
3.058	-0.00227
3.059	-0.002216
3.06	-0.002277
3.061	-0.002282
3.062	-0.002196
3.063	-0.002175
3.064	-0.002204
3.065	-0.002226
3.066	-0.002234
3.067	-0.002337
3.068	-0.002244
3.069	-0.002258
3.07	-0.002296
3.071	-0.00225
3.072	-0.002308
3.073	-0.002344
3.074	-0.002335
3.075	-0.002397
3.076	-0.002177
3.077	-0.002271
3.078	-0.002214
3.079	-0.002191
3.08	-0.002199
3.081	-0.002293
3.082	-0.002292
3.083	-0.002228
3.084	-0.002324
3.085	-0.002299
3.086	-0.002219
3.087	-0.002168
3.088	-0.002333
3.089	-0.002178
3.09	-0.002249
3.091	-0.00228
3.092	-0.002248
3.093	-0.002255
3.094	-0.002153
3.095	-0.002228
3.096	-0.002214
3.097	-0.002275
3.098	-0.002187
3.099	-0.00228
3.1	-0.002161
3.101	-0.002266
3.102	-0.00216
3.103	-0.002176
3.104	-0.002112
3.105	-0.002244
3.106	-0.002198
3.107	-0.002272
3.108	-0.002232
3.109	-0.002256
3.11	-0.002211
3.111	-0.002121
3.112	-0.002076
3.113	-0.002274
3.114	-0.002106
3.115	-0.002213
3.116	-0.002234
3.117	-0.002161
3.118	-0.002202
3.119	-0.002211
3.12	-0.00218
3.121	-0.002094
3.122	-0.002158
3.123	-0.002151
3.124	-0.002246
3.125	-0.002187
3.126	-0.002212
3.127	-0.002217
3.128	-0.002171
3.129	-0.002273
3.13	-0.002201
3.131	-0.002177
3.132	-0.002249
3.133	-0.002215
3.134	-0.002352
3.135	-0.00226
3.136	-0.002267
3.137	-0.002249
3.138	-0.002162
3.139	-0.002199
3.14	-0.002199
3.141	-0.002216
3.142	-0.002178
3.143	-0.002296
3.144	-0.002278
3.145	-0.002315
3.146	-0.002208
3.147	-0.002361
3.148	-0.002288
3.149	-0.002224
3.15	-0.00231
3.151	-0.002276
3.152	-0.002168
3.153	-0.002259
3.154	-0.002201
3.155	-0.00222
3.156	-0.002149
3.157	-0.002191
3.158	-0.002175
3.159	-0.00226
3.16	-0.002267
3.161	-0.002333
3.162	-0.002207
3.163	-0.002302
3.164	-0.00224
3.165	-0.002194
3.166	-0.002281
3.167	-0.002276
3.168	-0.002248
3.169	-0.002234
3.17	-0.002307
3.171	-0.002272
3.172	-0.002332
3.173	-0.002234
3.174	-0.002185
3.175	-0.002195
3.176	-0.002293
3.177	-0.002216
3.178	-0.002444
3.179	-0.002277
3.18	-0.002267
3.181	-0.002229
3.182	-0.002247
3.183	-0.002264
3.184	-0.002176
3.185	-0.002358
3.186	-0.002274
3.187	-0.002247
3.188	-0.002259
3.189	-0.002288
3.19	-0.00231
3.191	-0.002248
3.192	-0.002252
3.193	-0.002215
3.194	-0.002263
3.195	-0.002324
3.196	-0.002306
3.197	-0.002296
3.198	-0.002307
3.199	-0.002263
3.2	-0.00228
3.201	-0.002171
3.202	-0.0023
3.203	-0.002184
3.204	-0.002328
3.205	-0.002284
3.206	-0.002312
3.207	-0.00237
3.208	-0.002341
3.209	-0.002303
3.21	-0.002249
3.211	-0.002229
3.212	-0.002324
3.213	-0.002257
3.214	-0.002277
3.215	-0.002304
3.216	-0.00224
3.217	-0.002252
3.218	-0.002312
3.219	-0.002335
3.22	-0.002306
3.221	-0.002214
3.222	-0.002304
3.223	-0.002231
3.224	-0.002314
3.225	-0.002313
3.226	-0.002229
3.227	-0.002274
3.228	-0.002285
3.229	-0.002244
3.23	-0.002169
3.231	-0.002268
3.232	-0.00233
3.233	-0.002312
3.234	-0.002219
3.235	-0.002345
3.236	-0.002273
3.237	-0.002323
3.238	-0.002233
3.239	-0.002351
3.24	-0.002346
3.241	-0.002248
3.242	-0.002344
3.243	-0.002401
3.244	-0.002404
3.245	-0.002311
3.246	-0.002337
3.247	-0.002409
3.248	-0.002424
3.249	-0.002373
3.25	-0.002331
3.251	-0.002314
3.252	-0.002274
3.253	-0.002219
3.254	-0.002142
3.255	-0.002196
3.256	-0.002123
3.257	-0.002143
3.258	-0.001997
3.259	-0.001953
3.26	-0.001939
3.261	-0.001791
3.262	-0.00181
3.263	-0.001834
3.264	-0.001774
3.265	-0.001754
3.266	-0.001773
3.267	-0.001656
3.268	-0.001724
3.269	-0.001551
3.27	-0.001508
3.271	-0.001455
3.272	-0.001574
3.273	-0.001454
3.274	-0.001566
3.275	-0.001559
3.276	-0.001593
3.277	-0.001577
3.278	-0.001581
3.279	-0.001712
3.28	-0.001658
3.281	-0.001719
3.282	-0.001856
3.283	-0.001787
3.284	-0.001832
3.285	-0.001889
3.286	-0.001876
3.287	-0.001886
3.288	-0.002031
3.289	-0.001929
3.29	-0.002014
3.291	-0.002018
3.292	-0.001995
3.293	-0.002108
3.294	-0.002193
3.295	-0.002182
3.296	-0.00213
3.297	-0.002253
3.298	-0.002244
3.299	-0.002164
3.3	-0.00217
3.301	-0.002073
3.302	-0.00218
3.303	-0.002098
3.304	-0.002159
3.305	-0.002236
3.306	-0.002171
3.307	-0.002215
3.308	-0.002276
3.309	-0.002294
3.31	-0.002248
3.311	-0.002304
3.312	-0.002229
3.313	-0.002322
3.314	-0.002314
3.315	-0.002269
3.316	-0.00229
3.317	-0.002254
3.318	-0.002285
3.319	-0.002337
3.32	-0.00224
3.321	-0.002301
3.322	-0.0022
3.323	-0.002329
3.324	-0.002232
3.325	-0.002228
3.326	-0.002237
3.327	-0.002306
3.328	-0.002311
3.329	-0.002233
3.33	-0.002249
3.331	-0.002287
3.332	-0.002341
3.333	-0.002337
3.334	-0.002188
3.335	-0.002312
3.336	-0.002244
3.337	-0.002244
3.338	-0.002354
3.339	-0.002301
3.34	-0.002279
3.341	-0.002277
3.342	-0.002297
3.343	-0.00221
3.344	-0.002308
3.345	-0.002312
3.346	-0.002227
3.347	-0.00226
3.348	-0.00224
3.349	-0.002235
3.35	-0.002239
3.351	-0.002284
3.352	-0.002336
3.353	-0.002379
3.354	-0.002216
3.355	-0.002227
3.356	-0.002323
3.357	-0.002268
3.358	-0.002251
3.359	-0.002269
3.36	-0.002288
3.361	-0.002171
3.362	-0.002316
3.363	-0.00224
3.364	-0.002296
3.365	-0.002151
3.366	-0.002244
3.367	-0.002254
3.368	-0.002207
3.369	-0.002199
3.37	-0.00223
3.371	-0.002242
3.372	-0.002283
3.373	-0.002352
3.374	-0.002297
3.375	-0.002348
3.376	-0.00232
3.377	-0.002317
3.378	-0.002337
3.379	-0.002191
3.38	-0.002204
3.381	-0.002314
3.382	-0.002232
3.383	-0.002296
3.384	-0.002229
3.385	-0.002224
3.386	-0.002344
3.387	-0.00224
3.388	-0.002264
3.389	-0.002389
3.39	-0.002329
3.391	-0.00228
3.392	-0.002287
3.393	-0.002267
3.394	-0.002222
3.395	-0.002164
3.396	-0.002338
3.397	-0.002281
3.398	-0.002368
3.399	-0.002296
3.4	-0.002243
3.401	-0.002258
3.402	-0.002186
3.403	-0.002195
3.404	-0.00226
3.405	-0.002176
3.406	-0.002252
3.407	-0.002218
3.408	-0.002261
3.409	-0.002241
3.41	-0.002211
3.411	-0.002273
3.412	-0.002162
3.413	-0.002276
3.414	-0.002236
3.415	-0.00226
3.416	-0.002203
3.417	-0.002268
3.418	-0.002243
3.419	-0.002179
3.42	-0.002203
3.421	-0.002263
3.422	-0.00224
3.423	-0.002304
3.424	-0.002185
3.425	-0.002268
3.426	-0.002252
3.427	-0.002195
3.428	-0.002215
3.429	-0.002256
3.43	-0.002236
3.431	-0.002232
3.432	-0.002221
3.433	-0.002236
3.434	-0.0022
3.435	-0.002261
3.436	-0.00223
3.437	-0.002183
3.438	-0.002272
3.439	-0.002243
3.44	-0.002274
3.441	-0.002154
3.442	-0.002123
3.443	-0.002231
3.444	-0.002267
3.445	-0.002153
3.446	-0.002195
3.447	-0.002209
3.448	-0.002235
3.449	-0.002274
3.45	-0.002219
3.451	-0.002318
3.452	-0.002151
3.453	-0.002169
3.454	-0.002217
3.455	-0.002224
3.456	-0.002197
3.457	-0.002205
3.458	-0.002155
3.459	-0.002169
3.46	-0.002188
3.461	-0.002163
3.462	-0.002199
3.463	-0.002252
3.464	-0.002159
3.465	-0.002234
3.466	-0.002276
3.467	-0.002248
3.468	-0.002151
3.469	-0.002228
3.47	-0.002261
3.471	-0.00222
3.472	-0.002094
3.473	-0.002251
3.474	-0.00218
3.475	-0.002291
3.476	-0.002193
3.477	-0.002216
3.478	-0.002127
3.479	-0.002272
3.48	-0.002245
3.481	-0.002164
3.482	-0.002213
3.483	-0.002155
3.484	-0.002185
3.485	-0.00219
3.486	-0.002199
3.487	-0.002195
3.488	-0.002235
3.489	-0.002134
3.49	-0.00208
3.491	-0.002039
3.492	-0.002256
3.493	-0.00213
3.494	-0.002156
3.495	-0.002215
3.496	-0.002203
3.497	-0.002211
3.498	-0.002162
3.499	-0.002155
3.5	-0.002262
3.501	-0.002177
3.502	-0.002226
3.503	-0.002093
3.504	-0.00215
3.505	-0.002074
3.506	-0.002053
3.507	-0.002044
3.508	-0.002117
3.509	-0.002056
3.51	-0.002118
3.511	-0.002122
3.512	-0.002123
3.513	-0.002135
3.514	-0.00224
3.515	-0.002175
3.516	-0.00221
3.517	-0.002219
3.518	-0.00216
3.519	-0.002168
3.52	-0.002098
3.521	-0.002176
3.522	-0.002139
3.523	-0.00216
3.524	-0.002152
3.525	-0.002256
3.526	-0.002203
3.527	-0.002244
3.528	-0.002163
3.529	-0.002112
3.53	-0.002215
3.531	-0.002219
3.532	-0.002164
3.533	-0.002195
3.534	-0.002183
3.535	-0.00221
3.536	-0.002211
3.537	-0.002268
3.538	-0.002197
3.539	-0.002242
3.54	-0.002272
3.541	-0.002139
3.542	-0.00222
3.543	-0.002219
3.544	-0.002258
3.545	-0.00227
3.546	-0.002119
3.547	-0.002324
3.548	-0.002292
3.549	-0.002172
3.55	-0.002244
3.551	-0.002199
3.552	-0.00227
3.553	-0.002271
3.554	-0.002252
3.555	-0.002189
3.556	-0.002285
3.557	-0.002087
3.558	-0.002303
3.559	-0.00235
3.56	-0.002275
3.561	-0.002277
3.562	-0.002347
3.563	-0.002258
3.564	-0.002296
3.565	-0.002285
3.566	-0.002209
3.567	-0.0023
3.568	-0.002171
3.569	-0.002288
3.57	-0.002179
3.571	-0.002337
3.572	-0.002224
3.573	-0.00235
3.574	-0.002248
3.575	-0.002354
3.576	-0.002211
3.577	-0.002295
3.578	-0.00229
3.579	-0.00228
3.58	-0.002201
3.581	-0.002265
3.582	-0.002265
3.583	-0.00228
3.584	-0.002315
3.585	-0.002339
3.586	-0.002304
3.587	-0.002312
3.588	-0.002248
3.589	-0.002239
3.59	-0.00218
3.591	-0.002315
3.592	-0.00226
3.593	-0.002329
3.594	-0.002183
3.595	-0.002241
3.596	-0.002321
3.597	-0.002343
3.598	-0.002161
3.599	-0.002203
3.6	-0.002243
3.601	-0.002214
3.602	-0.002214
3.603	-0.002236
3.604	-0.002171
3.605	-0.002264
3.606	-0.002184
3.607	-0.002256
3.608	-0.002329
3.609	-0.002252
3.61	-0.002226
3.611	-0.002281
3.612	-0.002235
3.613	-0.00235
3.614	-0.002239
3.615	-0.002283
3.616	-0.002193
3.617	-0.002244
3.618	-0.002189
3.619	-0.002329
3.62	-0.002202
3.621	-0.002264
3.622	-0.002182
3.623	-0.002337
3.624	-0.002273
3.625	-0.00231
3.626	-0.002292
3.627	-0.00232
3.628	-0.002246
3.629	-0.00231
3.63	-0.002284
3.631	-0.002285
3.632	-0.002264
3.633	-0.002205
3.634	-0.002369
3.635	-0.002198
3.636	-0.002223
3.637	-0.002296
3.638	-0.002245
3.639	-0.002305
3.64	-0.002199
3.641	-0.002245
3.642	-0.00225
3.643	-0.002187
3.644	-0.002334
3.645	-0.002369
3.646	-0.002226
3.647	-0.002243
3.648	-0.002302
3.649	-0.002336
3.65	-0.002294
3.651	-0.002248
3.652	-0.002269
3.653	-0.002286
3.654	-0.002269
3.655	-0.002276
3.656	-0.002312
3.657	-0.002311
3.658	-0.002223
3.659	-0.002255
3.66	-0.002263
3.661	-0.002225
3.662	-0.00227
3.663	-0.002235
3.664	-0.002244
3.665	-0.00226
3.666	-0.00219
3.667	-0.002295
3.668	-0.00228
3.669	-0.002352
3.67	-0.002266
3.671	-0.002252
3.672	-0.002276
3.673	-0.002314
3.674	-0.002256
3.675	-0.002293
3.676	-0.002247
3.677	-0.002204
3.678	-0.002264
3.679	-0.002233
3.68	-0.002211
3.681	-0.002341
3.682	-0.0023
3.683	-0.002263
3.684	-0.002245
3.685	-0.002307
3.686	-0.002209
3.687	-0.002289
3.688	-0.00234
3.689	-0.002357
3.69	-0.002324
3.691	-0.002286
3.692	-0.0023
3.693	-0.002352
3.694	-0.002295
3.695	-0.002252
3.696	-0.002263
3.697	-0.002244
3.698	-0.002258
3.699	-0.002195
3.7	-0.002219
3.701	-0.002208
3.702	-0.002253
3.703	-0.002258
3.704	-0.002327
3.705	-0.002297
3.706	-0.002369
3.707	-0.002292
3.708	-0.002256
3.709	-0.002294
3.71	-0.002266
3.711	-0.002256
3.712	-0.002276
3.713	-0.0023
3.714	-0.002232
3.715	-0.002341
3.716	-0.002301
3.717	-0.002266
3.718	-0.00229
3.719	-0.002216
3.72	-0.002288
3.721	-0.002262
3.722	-0.002249
3.723	-0.002231
3.724	-0.002284
3.725	-0.002126
3.726	-0.002147
3.727	-0.002196
3.728	-0.002215
3.729	-0.002257
3.73	-0.002299
3.731	-0.002232
3.732	-0.00231
3.733	-0.002352
3.734	-0.00224
3.735	-0.00227
3.736	-0.002183
3.737	-0.002302
3.738	-0.002187
3.739	-0.002269
3.74	-0.002203
3.741	-0.002276
3.742	-0.002248
3.743	-0.002278
3.744	-0.002287
3.745	-0.002264
3.746	-0.002377
3.747	-0.00226
3.748	-0.00217
3.749	-0.002174
3.75	-0.002324
3.751	-0.002259
3.752	-0.002288
3.753	-0.002306
3.754	-0.002209
3.755	-0.002268
3.756	-0.002227
3.757	-0.002217
3.758	-0.002214
3.759	-0.002183
3.76	-0.002254
3.761	-0.002148
3.762	-0.00232
3.763	-0.002249
3.764	-0.002318
3.765	-0.002288
3.766	-0.00225
3.767	-0.002279
3.768	-0.002307
3.769	-0.002311
3.77	-0.002247
3.771	-0.002268
3.772	-0.002278
3.773	-0.002262
3.774	-0.002236
3.775	-0.002349
3.776	-0.00232
3.777	-0.002248
3.778	-0.00225
3.779	-0.002207
3.78	-0.00225
3.781	-0.002369
3.782	-0.002356
3.783	-0.002256
3.784	-0.002267
3.785	-0.002245
3.786	-0.002284
3.787	-0.002288
3.788	-0.002254
3.789	-0.002373
3.79	-0.002278
3.791	-0.00228
3.792	-0.002296
3.793	-0.002243
3.794	-0.002272
3.795	-0.00226
3.796	-0.002274
3.797	-0.002221
3.798	-0.002212
3.799	-0.00232
3.8	-0.002389
3.801	-0.002234
3.802	-0.00228
3.803	-0.002252
3.804	-0.002219
3.805	-0.002316
3.806	-0.002312
3.807	-0.002312
3.808	-0.002372
3.809	-0.002408
3.81	-0.002304
3.811	-0.002402
3.812	-0.002252
3.813	-0.002185
3.814	-0.002209
3.815	-0.002224
3.816	-0.002241
3.817	-0.002253
3.818	-0.00233
3.819	-0.002376
3.82	-0.002289
3.821	-0.002192
3.822	-0.002308
3.823	-0.002324
3.824	-0.00227
3.825	-0.00226
3.826	-0.002163
3.827	-0.002255
3.828	-0.00226
3.829	-0.002228
3.83	-0.002294
3.831	-0.002294
3.832	-0.002215
3.833	-0.002287
3.834	-0.002219
3.835	-0.002272
3.836	-0.00221
3.837	-0.002139
3.838	-0.00223
3.839	-0.002269
3.84	-0.002171
3.841	-0.002265
3.842	-0.002083
3.843	-0.002246
3.844	-0.002256
3.845	-0.002203
3.846	-0.002173
3.847	-0.002197
3.848	-0.002156
3.849	-0.002248
3.85	-0.002264
3.851	-0.002216
3.852	-0.002313
3.853	-0.002188
3.854	-0.002126
3.855	-0.002213
3.856	-0.002215
3.857	-0.002214
3.858	-0.00225
3.859	-0.002134
3.86	-0.002158
3.861	-0.002207
3.862	-0.002183
3.863	-0.002225
3.864	-0.002198
3.865	-0.00232
3.866	-0.002143
3.867	-0.002179
3.868	-0.002284
3.869	-0.002252
3.87	-0.002229
3.871	-0.002233
3.872	-0.002139
3.873	-0.002272
3.874	-0.002254
3.875	-0.002191
3.876	-0.002251
3.877	-0.002189
3.878	-0.002232
3.879	-0.002196
3.88	-0.002174
3.881	-0.002173
3.882	-0.00224
3.883	-0.002283
3.884	-0.002233
3.885	-0.002311
3.886	-0.002257
3.887	-0.002259
3.888	-0.002256
3.889	-0.002252
3.89	-0.002226
3.891	-0.002177
3.892	-0.002168
3.893	-0.002296
3.894	-0.00228
3.895	-0.002232
3.896	-0.00226
3.897	-0.00236
3.898	-0.002201
3.899	-0.002288
3.9	-0.0023
3.901	-0.002292
3.902	-0.002268
3.903	-0.002287
3.904	-0.002273
3.905	-0.002244
3.906	-0.00226
3.907	-0.002296
3.908	-0.002222
3.909	-0.002302
3.91	-0.00221
3.911	-0.002307
3.912	-0.002326
3.913	-0.002246
3.914	-0.002172
3.915	-0.002255
3.916	-0.002335
3.917	-0.002281
3.918	-0.002341
3.919	-0.002326
3.92	-0.002323
3.921	-0.002265
3.922	-0.002311
3.923	-0.002357
3.924	-0.002285
3.925	-0.002304
3.926	-0.002331
3.927	-0.002213
3.928	-0.002308
3.929	-0.002324
3.93	-0.002304
3.931	-0.00225
3.932	-0.002264
3.933	-0.002241
3.934	-0.002329
3.935	-0.002318
3.936	-0.00223
3.937	-0.002361
3.938	-0.002333
3.939	-0.002269
3.94	-0.002291
3.941	-0.002148
3.942	-0.002292
3.943	-0.002102
3.944	-0.002242
3.945	-0.002257
3.946	-0.002276
3.947	-0.002295
3.948	-0.002276
3.949	-0.002327
3.95	-0.002254
3.951	-0.002193
3.952	-0.002242
3.953	-0.002129
3.954	-0.002191
3.955	-0.002238
3.956	-0.002202
3.957	-0.002284
3.958	-0.00224
3.959	-0.002268
3.96	-0.00223
3.961	-0.002253
3.962	-0.002236
3.963	-0.002219
3.964	-0.002174
3.965	-0.002274
3.966	-0.002276
3.967	-0.002227
3.968	-0.002198
3.969	-0.002244
3.97	-0.002306
3.971	-0.002358
3.972	-0.002198
3.973	-0.002265
3.974	-0.002313
3.975	-0.002361
3.976	-0.002258
3.977	-0.002328
3.978	-0.002123
3.979	-0.002295
3.98	-0.002312
3.981	-0.002345
3.982	-0.00229
3.983	-0.00232
3.984	-0.002278
3.985	-0.002308
3.986	-0.002264
3.987	-0.002296
3.988	-0.00226
3.989	-0.002345
3.99	-0.002353
3.991	-0.002313
3.992	-0.002329
3.993	-0.002351
3.994	-0.002282
3.995	-0.002357
3.996	-0.002387
3.997	-0.002329
3.998	-0.002409
3.999	-0.002337
4	-0.002333
4.001	-0.002261
4.002	-0.002305
4.003	-0.002293
4.004	-0.002171
4.005	-0.002111
4.006	-0.002071
4.007	-0.002065
4.008	-0.0021
4.009	-0.001964
4.01	-0.002002
4.011	-0.001904
4.012	-0.001886
4.013	-0.001779
4.014	-0.001794
4.015	-0.001763
4.016	-0.001615
4.017	-0.001744
4.018	-0.001654
4.019	-0.001638
4.02	-0.001557
4.021	-0.001622
4.022	-0.001502
4.023	-0.001504
4.024	-0.001582
4.025	-0.001665
4.026	-0.001483
4.027	-0.0016
4.028	-0.001658
4.029	-0.001585
4.03	-0.00169
4.031	-0.001655
4.032	-0.00174
4.033	-0.001784
4.034	-0.001864
4.035	-0.001769
4.036	-0.0019
4.037	-0.001941
4.038	-0.002001
4.039	-0.001977
4.04	-0.00206
4.041	-0.002046
4.042	-0.002066
4.043	-0.002055
4.044	-0.002165
4.045	-0.002141
4.046	-0.002089
4.047	-0.002159
4.048	-0.002139
4.049	-0.002266
4.05	-0.002199
4.051	-0.002162
4.052	-0.002207
4.053	-0.002274
4.054	-0.002168
4.055	-0.002276
4.056	-0.002278
4.057	-0.002304
4.058	-0.002143
4.059	-0.00236
4.06	-0.002261
4.061	-0.002308
4.062	-0.002281
4.063	-0.002193
4.064	-0.002279
4.065	-0.002316
4.066	-0.002299
4.067	-0.0023
4.068	-0.002205
4.069	-0.002242
4.07	-0.002226
4.071	-0.002246
4.072	-0.002217
4.073	-0.002324
4.074	-0.002272
4.075	-0.002285
4.076	-0.002268
4.077	-0.00233
4.078	-0.002247
4.079	-0.002329
4.08	-0.00224
4.081	-0.002292
4.082	-0.002278
4.083	-0.002253
4.084	-0.002184
4.085	-0.002313
4.086	-0.002299
4.087	-0.002321
4.088	-0.002296
4.089	-0.002378
4.09	-0.002309
4.091	-0.002322
4.092	-0.00229
4.093	-0.002339
4.094	-0.00224
4.095	-0.002306
4.096	-0.00228
4.097	-0.002293
4.098	-0.002326
4.099	-0.002334
4.1	-0.002267
4.101	-0.002329
4.102	-0.002222
4.103	-0.002331
4.104	-0.002253
4.105	-0.002253
4.106	-0.002303
4.107	-0.002247
4.108	-0.002203
4.109	-0.002239
4.11	-0.002268
4.111	-0.00226
4.112	-0.002258
4.113	-0.00224
4.114	-0.002297
4.115	-0.002233
4.116	-0.002319
4.117	-0.002261
4.118	-0.002256
4.119	-0.002277
4.12	-0.002181
4.121	-0.00232
4.122	-0.002235
4.123	-0.002284
4.124	-0.002272
4.125	-0.002276
4.126	-0.002334
4.127	-0.002157
4.128	-0.002244
4.129	-0.002324
4.13	-0.002182
4.131	-0.002221
4.132	-0.002238
4.133	-0.00223
4.134	-0.00233
4.135	-0.0023
4.136	-0.002255
4.137	-0.002295
4.138	-0.002281
4.139	-0.002302
4.14	-0.002223
4.141	-0.002317
4.142	-0.002277
4.143	-0.002231
4.144	-0.002219
4.145	-0.002199
4.146	-0.002256
4.147	-0.00224
4.148	-0.002284
4.149	-0.002219
4.15	-0.002322
4.151	-0.002246
4.152	-0.002236
4.153	-0.002187
4.154	-0.002305
4.155	-0.002254
4.156	-0.002201
4.157	-0.00224
4.158	-0.002329
4.159	-0.002265
4.16	-0.002199
4.161	-0.002287
4.162	-0.002221
4.163	-0.002256
4.164	-0.002244
4.165	-0.002223
4.166	-0.00222
4.167	-0.002286
4.168	-0.002312
4.169	-0.002243
4.17	-0.002188
4.171	-0.002152
4.172	-0.002162
4.173	-0.002224
4.174	-0.002183
4.175	-0.002311
4.176	-0.002208
4.177	-0.002199
4.178	-0.002282
4.179	-0.002212
4.18	-0.002243
4.181	-0.002299
4.182	-0.002232
4.183	-0.002327
4.184	-0.002206
4.185	-0.002236
4.186	-0.002185
4.187	-0.002311
4.188	-0.002256
4.189	-0.002252
4.19	-0.002172
4.191	-0.002219
4.192	-0.002268
4.193	-0.002286
4.194	-0.002208
4.195	-0.002285
4.196	-0.002203
4.197	-0.002175
4.198	-0.00219
4.199	-0.002232
4.2	-0.002235
4.201	-0.002204
4.202	-0.002241
4.203	-0.002268
4.204	-0.002227
4.205	-0.00223
4.206	-0.0022
4.207	-0.002216
4.208	-0.002185
4.209	-0.002193
4.21	-0.00229
4.211	-0.002109
4.212	-0.002091
4.213	-0.002189
4.214	-0.002203
4.215	-0.002163
4.216	-0.002272
4.217	-0.002155
4.218	-0.002172
4.219	-0.002183
4.22	-0.002135
4.221	-0.002199
4.222	-0.002167
4.223	-0.002304
4.224	-0.002209
4.225	-0.002203
4.226	-0.0021
4.227	-0.002316
4.228	-0.002256
4.229	-0.002115
4.23	-0.002157
4.231	-0.002218
4.232	-0.002236
4.233	-0.002191
4.234	-0.002121
4.235	-0.002283
4.236	-0.00222
4.237	-0.00219
4.238	-0.002148
4.239	-0.002178
4.24	-0.002175
4.241	-0.002201
4.242	-0.002154
4.243	-0.002027
4.244	-0.002128
4.245	-0.002169
4.246	-0.002062
4.247	-0.002181
4.248	-0.00219
4.249	-0.002074
4.25	-0.00213
4.251	-0.002152
4.252	-0.00224
4.253	-0.002162
4.254	-0.002191
4.255	-0.002204
4.256	-0.002088
4.257	-0.002102
4.258	-0.002171
4.259	-0.002143
4.26	-0.002242
4.261	-0.002148
4.262	-0.002224
4.263	-0.002144
4.264	-0.002188
4.265	-0.002171
4.266	-0.002199
4.267	-0.002199
4.268	-0.002249
4.269	-0.002231
4.27	-0.002155
4.271	-0.002207
4.272	-0.002197
4.273	-0.002155
4.274	-0.002123
4.275	-0.002166
4.276	-0.002122
4.277	-0.002191
4.278	-0.002204
4.279	-0.002253
4.28	-0.002187
4.281	-0.002218
4.282	-0.002191
4.283	-0.002161
4.284	-0.002324
4.285	-0.002155
4.286	-0.002135
4.287	-0.002258
4.288	-0.002221
4.289	-0.002185
4.29	-0.002187
4.291	-0.002221
4.292	-0.002235
4.293	-0.002224
4.294	-0.002247
4.295	-0.002243
4.296	-0.002197
4.297	-0.002333
4.298	-0.002211
4.299	-0.002316
4.3	-0.002329
4.301	-0.002285
4.302	-0.002233
4.303	-0.002271
4.304	-0.002286
4.305	-0.00227
4.306	-0.00228
4.307	-0.002292
4.308	-0.002282
4.309	-0.002254
4.31	-0.002221
4.311	-0.002205
4.312	-0.002187
4.313	-0.002318
4.314	-0.002288
4.315	-0.002284
4.316	-0.00222
4.317	-0.002296
4.318	-0.002293
4.319	-0.002282
4.32	-0.002302
4.321	-0.002253
4.322	-0.002193
4.323	-0.002383
4.324	-0.002121
4.325	-0.00232
4.326	-0.002237
4.327	-0.002268
4.328	-0.002268
4.329	-0.002247
4.33	-0.002262
4.331	-0.002246
4.332	-0.002278
4.333	-0.002259
4.334	-0.002236
4.335	-0.002127
4.336	-0.002187
4.337	-0.002262
4.338	-0.002297
4.339	-0.002264
4.34	-0.002333
4.341	-0.002332
4.342	-0.002353
4.343	-0.002276
4.344	-0.002256
4.345	-0.002326
4.346	-0.002284
4.347	-0.002247
4.348	-0.002285
4.349	-0.002224
4.35	-0.002283
4.351	-0.002333
4.352	-0.002291
4.353	-0.002292
4.354	-0.002255
4.355	-0.002301
4.356	-0.00232
4.357	-0.002246
4.358	-0.002434
4.359	-0.002285
4.36	-0.002177
4.361	-0.002303
4.362	-0.002229
4.363	-0.002257
4.364	-0.002241
4.365	-0.002282
4.366	-0.002206
4.367	-0.002264
4.368	-0.002109
4.369	-0.0023
4.37	-0.002259
4.371	-0.002258
4.372	-0.002172
4.373	-0.002142
4.374	-0.002276
4.375	-0.002248
4.376	-0.002278
4.377	-0.002297
4.378	-0.002283
4.379	-0.002327
4.38	-0.002278
4.381	-0.002278
4.382	-0.002276
4.383	-0.002389
4.384	-0.002288
4.385	-0.002272
4.386	-0.002161
4.387	-0.002331
4.388	-0.002232
4.389	-0.002343
4.39	-0.002219
4.391	-0.002276
4.392	-0.002274
4.393	-0.00229
4.394	-0.002281
4.395	-0.002333
4.396	-0.002188
4.397	-0.002233
4.398	-0.002377
4.399	-0.00216
4.4	-0.002139
4.401	-0.00223
4.402	-0.002241
4.403	-0.002329
4.404	-0.002165
4.405	-0.002294
4.406	-0.002323
4.407	-0.002275
4.408	-0.002316
4.409	-0.002333
4.41	-0.002284
4.411	-0.002299
4.412	-0.002203
4.413	-0.002177
4.414	-0.002349
4.415	-0.002321
4.416	-0.002267
4.417	-0.002274
4.418	-0.002278
4.419	-0.002256
4.42	-0.002184
4.421	-0.002281
4.422	-0.002295
4.423	-0.002304
4.424	-0.00225
4.425	-0.002242
4.426	-0.002264
4.427	-0.002227
4.428	-0.002154
4.429	-0.002303
4.43	-0.002243
4.431	-0.002256
4.432	-0.002268
4.433	-0.002342
4.434	-0.00232
4.435	-0.002287
4.436	-0.002228
4.437	-0.002143
4.438	-0.002217
4.439	-0.002249
4.44	-0.002304
4.441	-0.002337
4.442	-0.00229
4.443	-0.002225
4.444	-0.002255
4.445	-0.002268
4.446	-0.002303
4.447	-0.002252
4.448	-0.002196
4.449	-0.002265
4.45	-0.002315
4.451	-0.002246
4.452	-0.0022
4.453	-0.002285
4.454	-0.002306
4.455	-0.002323
4.456	-0.002265
4.457	-0.002316
4.458	-0.002297
4.459	-0.002414
4.46	-0.002219
4.461	-0.002215
4.462	-0.002266
4.463	-0.002155
4.464	-0.002312
4.465	-0.002282
4.466	-0.002224
4.467	-0.002282
4.468	-0.002246
4.469	-0.002238
4.47	-0.002337
4.471	-0.002235
4.472	-0.002378
4.473	-0.002231
4.474	-0.002247
4.475	-0.002318
4.476	-0.002146
4.477	-0.002181
4.478	-0.002218
4.479	-0.002327
4.48	-0.002294
4.481	-0.0023
4.482	-0.002288
4.483	-0.002304
4.484	-0.002326
4.485	-0.002232
4.486	-0.002299
4.487	-0.002324
4.488	-0.002276
4.489	-0.00234
4.49	-0.002248
4.491	-0.002278
4.492	-0.002235
4.493	-0.002348
4.494	-0.002255
4.495	-0.002238
4.496	-0.00225
4.497	-0.002268
4.498	-0.002299
4.499	-0.002272
4.5	-0.002306
4.501	-0.002367
4.502	-0.002186
4.503	-0.002224
4.504	-0.002186
4.505	-0.002284
4.506	-0.002296
4.507	-0.002295
4.508	-0.002171
4.509	-0.002213
4.51	-0.002276
4.511	-0.00232
4.512	-0.002272
4.513	-0.002257
4.514	-0.002307
4.515	-0.002278
4.516	-0.002264
4.517	-0.002381
4.518	-0.002286
4.519	-0.002292
4.52	-0.002242
4.521	-0.002349
4.522	-0.00225
4.523	-0.002317
4.524	-0.00216
4.525	-0.002305
4.526	-0.002171
4.527	-0.002369
4.528	-0.002143
4.529	-0.002221
4.53	-0.002252
4.531	-0.002345
4.532	-0.002311
4.533	-0.002309
4.534	-0.002203
4.535	-0.002296
4.536	-0.002276
4.537	-0.00228
4.538	-0.00239
4.539	-0.002209
4.54	-0.002318
4.541	-0.002321
4.542	-0.002198
4.543	-0.002272
4.544	-0.002305
4.545	-0.002272
4.546	-0.002222
4.547	-0.002293
4.548	-0.00224
4.549	-0.002336
4.55	-0.002268
4.551	-0.002357
4.552	-0.002292
4.553	-0.00218
4.554	-0.002257
4.555	-0.002346
4.556	-0.002248
4.557	-0.002276
4.558	-0.002324
4.559	-0.002292
4.56	-0.002258
4.561	-0.002226
4.562	-0.002326
4.563	-0.002183
4.564	-0.002287
4.565	-0.002228
4.566	-0.002167
4.567	-0.002292
4.568	-0.002247
4.569	-0.002349
4.57	-0.002185
4.571	-0.00232
4.572	-0.002248
4.573	-0.002246
4.574	-0.002312
4.575	-0.002238
4.576	-0.002261
4.577	-0.002196
4.578	-0.002288
4.579	-0.002271
4.58	-0.002135
4.581	-0.002264
4.582	-0.002171
4.583	-0.002114
4.584	-0.002184
4.585	-0.002313
4.586	-0.00222
4.587	-0.002313
4.588	-0.00228
4.589	-0.002191
4.59	-0.002217
4.591	-0.002265
4.592	-0.002159
4.593	-0.002175
4.594	-0.002162
4.595	-0.002268
4.596	-0.002199
4.597	-0.002213
4.598	-0.002232
4.599	-0.00218
4.6	-0.002175
4.601	-0.00228
4.602	-0.002089
4.603	-0.002252
4.604	-0.002218
4.605	-0.002249
4.606	-0.002202
4.607	-0.002243
4.608	-0.002187
4.609	-0.002126
4.61	-0.002163
4.611	-0.002196
4.612	-0.0023
4.613	-0.00222
4.614	-0.002192
4.615	-0.002228
4.616	-0.00216
4.617	-0.002144
4.618	-0.002172
4.619	-0.002239
4.62	-0.002213
4.621	-0.002281
4.622	-0.002157
4.623	-0.00224
4.624	-0.002193
4.625	-0.002283
4.626	-0.002145
4.627	-0.002228
4.628	-0.002252
4.629	-0.002236
4.63	-0.002235
4.631	-0.002247
4.632	-0.002257
4.633	-0.002245
4.634	-0.002249
4.635	-0.002236
4.636	-0.002268
4.637	-0.002293
4.638	-0.002206
4.639	-0.002256
4.64	-0.002248
4.641	-0.002207
4.642	-0.002138
4.643	-0.002236
4.644	-0.00222
4.645	-0.00231
4.646	-0.00227
4.647	-0.002315
4.648	-0.002296
4.649	-0.002284
4.65	-0.002264
4.651	-0.002247
4.652	-0.002214
4.653	-0.002145
4.654	-0.002228
4.655	-0.002277
4.656	-0.002236
4.657	-0.002276
4.658	-0.002274
4.659	-0.002282
4.66	-0.002132
4.661	-0.00229
4.662	-0.00228
4.663	-0.002365
4.664	-0.0023
4.665	-0.002239
4.666	-0.002241
4.667	-0.002278
4.668	-0.002243
4.669	-0.002236
4.67	-0.002273
4.671	-0.002254
4.672	-0.002366
4.673	-0.002265
4.674	-0.002267
4.675	-0.002203
4.676	-0.00234
4.677	-0.0023
4.678	-0.002222
4.679	-0.002154
4.68	-0.002206
4.681	-0.00214
4.682	-0.002256
4.683	-0.002192
4.684	-0.002279
4.685	-0.002345
4.686	-0.002214
4.687	-0.002256
4.688	-0.002305
4.689	-0.002191
4.69	-0.0023
4.691	-0.002197
4.692	-0.002183
4.693	-0.002349
4.694	-0.002315
4.695	-0.002262
4.696	-0.002294
4.697	-0.002209
4.698	-0.002219
4.699	-0.002366
4.7	-0.002284
4.701	-0.002344
4.702	-0.002171
4.703	-0.002168
4.704	-0.002197
4.705	-0.002284
4.706	-0.002204
4.707	-0.002209
4.708	-0.002135
4.709	-0.00234
4.71	-0.002244
4.711	-0.002351
4.712	-0.002266
4.713	-0.002288
4.714	-0.002194
4.715	-0.002232
4.716	-0.002246
4.717	-0.002176
4.718	-0.002244
4.719	-0.002337
4.72	-0.0023
4.721	-0.00234
4.722	-0.002273
4.723	-0.002286
4.724	-0.002306
4.725	-0.002284
4.726	-0.002351
4.727	-0.002201
4.728	-0.002194
4.729	-0.002321
4.73	-0.002211
4.731	-0.00232
4.732	-0.002233
4.733	-0.002256
4.734	-0.002312
4.735	-0.002233
4.736	-0.002304
4.737	-0.002393
4.738	-0.0023
4.739	-0.002306
4.74	-0.002319
4.741	-0.002313
4.742	-0.00232
4.743	-0.002279
4.744	-0.002406
4.745	-0.002383
4.746	-0.002407
4.747	-0.002421
4.748	-0.00245
4.749	-0.002407
4.75	-0.002382
4.751	-0.002299
4.752	-0.002211
4.753	-0.002212
4.754	-0.002213
4.755	-0.002148
4.756	-0.002114
4.757	-0.002055
4.758	-0.001995
4.759	-0.002022
4.76	-0.001872
4.761	-0.001973
4.762	-0.001905
4.763	-0.001823
4.764	-0.001836
4.765	-0.001743
4.766	-0.00167
4.767	-0.001606
4.768	-0.001678
4.769	-0.001625
4.77	-0.001582
4.771	-0.00144
4.772	-0.001534
4.773	-0.001534
4.774	-0.001549
4.775	-0.001527
4.776	-0.001572
4.777	-0.001644
4.778	-0.001652
4.779	-0.001746
4.78	-0.001606
4.781	-0.001743
4.782	-0.00174
4.783	-0.00182
4.784	-0.001871
4.785	-0.001786
4.786	-0.001903
4.787	-0.001909
4.788	-0.00193
4.789	-0.001956
4.79	-0.001978
4.791	-0.001998
4.792	-0.002046
4.793	-0.001994
4.794	-0.001987
4.795	-0.002117
4.796	-0.002096
4.797	-0.002257
4.798	-0.002207
4.799	-0.002228
4.8	-0.002162
4.801	-0.002244
4.802	-0.002187
4.803	-0.00227
4.804	-0.002155
4.805	-0.002145
4.806	-0.002283
4.807	-0.002264
4.808	-0.002258
4.809	-0.002236
4.81	-0.002237
4.811	-0.00222
4.812	-0.002291
4.813	-0.002309
4.814	-0.002255
4.815	-0.00226
4.816	-0.002249
4.817	-0.002216
4.818	-0.002147
4.819	-0.0023
4.82	-0.002229
4.821	-0.002328
4.822	-0.002287
4.823	-0.002311
4.824	-0.002199
4.825	-0.002274
4.826	-0.002303
4.827	-0.002224
4.828	-0.002346
4.829	-0.002339
4.83	-0.002211
4.831	-0.002242
4.832	-0.00229
4.833	-0.002262
4.834	-0.002259
4.835	-0.002306
4.836	-0.002196
4.837	-0.002265
4.838	-0.002237
4.839	-0.002276
4.84	-0.002243
4.841	-0.002168
4.842	-0.002239
4.843	-0.002308
4.844	-0.002346
4.845	-0.002186
4.846	-0.002353
4.847	-0.002258
4.848	-0.002281
4.849	-0.00226
4.85	-0.002312
4.851	-0.00224
4.852	-0.00236
4.853	-0.002353
4.854	-0.002348
4.855	-0.002212
4.856	-0.002249
4.857	-0.002256
4.858	-0.002228
4.859	-0.002221
4.86	-0.002365
4.861	-0.002396
4.862	-0.002278
4.863	-0.002373
4.864	-0.002303
4.865	-0.002283
4.866	-0.002169
4.867	-0.002318
4.868	-0.002346
4.869	-0.002316
4.87	-0.002267
4.871	-0.002224
4.872	-0.002252
4.873	-0.002256
4.874	-0.002243
4.875	-0.002179
4.876	-0.002277
4.877	-0.002236
4.878	-0.002232
4.879	-0.002234
4.88	-0.002272
4.881	-0.002259
4.882	-0.002326
4.883	-0.002293
4.884	-0.002181
4.885	-0.00231
4.886	-0.002334
4.887	-0.002254
4.888	-0.002256
4.889	-0.002257
4.89	-0.002312
4.891	-0.002292
4.892	-0.00225
4.893	-0.002315
4.894	-0.002275
4.895	-0.002298
4.896	-0.002337
4.897	-0.002213
4.898	-0.002206
4.899	-0.002288
4.9	-0.002197
4.901	-0.002216
4.902	-0.002276
4.903	-0.002312
4.904	-0.002232
4.905	-0.002243
4.906	-0.00224
4.907	-0.002331
4.908	-0.002199
4.909	-0.002248
4.91	-0.002319
4.911	-0.002287
4.912	-0.002166
4.913	-0.002255
4.914	-0.002184
4.915	-0.002256
4.916	-0.002286
4.917	-0.002167
4.918	-0.002171
4.919	-0.002183
4.92	-0.002229
4.921	-0.00222
4.922	-0.00229
4.923	-0.002271
4.924	-0.002222
4.925	-0.002279
4.926	-0.002324
4.927	-0.002276
4.928	-0.002219
4.929	-0.002211
4.93	-0.002237
4.931	-0.002228
4.932	-0.002288
4.933	-0.002255
4.934	-0.002149
4.935	-0.002284
4.936	-0.002202
4.937	-0.00219
4.938	-0.002187
4.939	-0.002296
4.94	-0.002346
4.941	-0.00228
4.942	-0.002203
4.943	-0.002282
4.944	-0.002349
4.945	-0.002169
4.946	-0.002245
4.947	-0.002112
4.948	-0.00218
4.949	-0.002172
4.95	-0.002244
4.951	-0.002261
4.952	-0.002307
4.953	-0.002181
4.954	-0.002239
4.955	-0.002241
4.956	-0.002225
4.957	-0.002207
4.958	-0.0021
4.959	-0.002186
4.96	-0.002151
4.961	-0.002232
4.962	-0.00221
4.963	-0.002265
4.964	-0.002309
4.965	-0.002232
4.966	-0.002244
4.967	-0.002235
4.968	-0.002175
4.969	-0.00218
4.97	-0.00225
4.971	-0.002086
4.972	-0.002235
4.973	-0.002198
4.974	-0.002166
4.975	-0.002163
4.976	-0.0023
4.977	-0.002258
4.978	-0.002128
4.979	-0.002329
4.98	-0.002143
4.981	-0.002228
4.982	-0.002144
4.983	-0.002227
4.984	-0.002232
4.985	-0.002257
4.986	-0.002041
4.987	-0.002185
4.988	-0.00209
4.989	-0.002282
4.99	-0.002203
4.991	-0.00209
4.992	-0.0022
4.993	-0.002179
4.994	-0.002176
4.995	-0.002073
4.996	-0.00202
4.997	-0.002151
4.998	-0.00217
4.999	-0.002188
5	-0.002195
