0	-0.002308
0.001	-0.002325
0.002	-0.0023
0.003	-0.00232
0.004	-0.002301
0.005	-0.002329
0.006	-0.002262
0.007	-0.002327
0.008	-0.002312
0.009	-0.002338
0.01	-0.002355
0.011	-0.002284
0.012	-0.002309
0.013	-0.002259
0.014	-0.002301
0.015	-0.002284
0.016	-0.002335
0.017	-0.002288
0.018	-0.002286
0.019	-0.002318
0.02	-0.002317
0.021	-0.002336
0.022	-0.002324
0.023	-0.002344
0.024	-0.002314
0.025	-0.002336
0.026	-0.002248
0.027	-0.00237
0.028	-0.002256
0.029	-0.002305
0.03	-0.002335
0.031	-0.002281
0.032	-0.002323
0.033	-0.002333
0.034	-0.00231
0.035	-0.002337
0.036	-0.002326
0.037	-0.002276
0.038	-0.002341
0.039	-0.002275
0.04	-0.002331
0.041	-0.002316
0.042	-0.00229
0.043	-0.002293
0.044	-0.002292
0.045	-0.002321
0.046	-0.002322
0.047	-0.002382
0.048	-0.002327
0.049	-0.002353
0.05	-0.002284
0.051	-0.002308
0.052	-0.002301
0.053	-0.0023
0.054	-0.00226
0.055	-0.002326
0.056	-0.0023
0.057	-0.002307
0.058	-0.002319
0.059	-0.002267
0.06	-0.002315
0.061	-0.002301
0.062	-0.002318
0.063	-0.002334
0.064	-0.002329
0.065	-0.002305
0.066	-0.002298
0.067	-0.002326
0.068	-0.002302
0.069	-0.002339
0.07	-0.002288
0.071	-0.002312
0.072	-0.002305
0.073	-0.00232
0.074	-0.002363
0.075	-0.00235
0.076	-0.002385
0.077	-0.002366
0.078	-0.002393
0.079	-0.002399
0.08	-0.002396
0.081	-0.002432
0.082	-0.002467
0.083	-0.002481
0.084	-0.002446
0.085	-0.002461
0.086	-0.002464
0.087	-0.002534
0.088	-0.002478
0.089	-0.002547
0.09	-0.002563
0.091	-0.002569
0.092	-0.002585
0.093	-0.002622
0.094	-0.002555
0.095	-0.002595
0.096	-0.002612
0.097	-0.00259
0.098	-0.002639
0.099	-0.002622
0.1	-0.002643
0.101	-0.002587
0.102	-0.002696
0.103	-0.002627
0.104	-0.002668
0.105	-0.002688
0.106	-0.00269
0.107	-0.002675
0.108	-0.002639
0.109	-0.002655
0.11	-0.002662
0.111	-0.002692
0.112	-0.002652
0.113	-0.002659
0.114	-0.002651
0.115	-0.002683
0.116	-0.00268
0.117	-0.002664
0.118	-0.002706
0.119	-0.002666
0.12	-0.002668
0.121	-0.002622
0.122	-0.002647
0.123	-0.002625
0.124	-0.002656
0.125	-0.002631
0.126	-0.00266
0.127	-0.002632
0.128	-0.002603
0.129	-0.002631
0.13	-0.002627
0.131	-0.002603
0.132	-0.002563
0.133	-0.002548
0.134	-0.002502
0.135	-0.002547
0.136	-0.002543
0.137	-0.002518
0.138	-0.002547
0.139	-0.002534
0.14	-0.002488
0.141	-0.002474
0.142	-0.002442
0.143	-0.002433
0.144	-0.002423
0.145	-0.002381
0.146	-0.002385
0.147	-0.002354
0.148	-0.002379
0.149	-0.00235
0.15	-0.002353
0.151	-0.002374
0.152	-0.002339
0.153	-0.002342
0.154	-0.002301
0.155	-0.002324
0.156	-0.002325
0.157	-0.002313
0.158	-0.002304
0.159	-0.002341
0.16	-0.002302
0.161	-0.002296
0.162	-0.002307
0.163	-0.002345
0.164	-0.002287
0.165	-0.002341
0.166	-0.002338
0.167	-0.002349
0.168	-0.002331
0.169	-0.002309
0.17	-0.002299
0.171	-0.002307
0.172	-0.002309
0.173	-0.002305
0.174	-0.002297
0.175	-0.002337
0.176	-0.002336
0.177	-0.00234
0.178	-0.002312
0.179	-0.002328
0.18	-0.002277
0.181	-0.002329
0.182	-0.002244
0.183	-0.0023
0.184	-0.002301
0.185	-0.002336
0.186	-0.002267
0.187	-0.002316
0.188	-0.002313
0.189	-0.002323
0.19	-0.002292
0.191	-0.002323
0.192	-0.0023
0.193	-0.002312
0.194	-0.002315
0.195	-0.002294
0.196	-0.002307
0.197	-0.002341
0.198	-0.002302
0.199	-0.00233
0.2	-0.002317
0.201	-0.002341
0.202	-0.002347
0.203	-0.002323
0.204	-0.002276
0.205	-0.002341
0.206	-0.00228
0.207	-0.002308
0.208	-0.002288
0.209	-0.002292
0.21	-0.002295
0.211	-0.002312
0.212	-0.002312
0.213	-0.0023
0.214	-0.002329
0.215	-0.00231
0.216	-0.00232
0.217	-0.002261
0.218	-0.002297
0.219	-0.002261
0.22	-0.00232
0.221	-0.002276
0.222	-0.002298
0.223	-0.002337
0.224	-0.002325
0.225	-0.002316
0.226	-0.002273
0.227	-0.002321
0.228	-0.002268
0.229	-0.002288
0.23	-0.002329
0.231	-0.002311
0.232	-0.002289
0.233	-0.002304
0.234	-0.002269
0.235	-0.002248
0.236	-0.002197
0.237	-0.002205
0.238	-0.002193
0.239	-0.002155
0.24	-0.002138
0.241	-0.002077
0.242	-0.002058
0.243	-0.002013
0.244	-0.002008
0.245	-0.001911
0.246	-0.001933
0.247	-0.001961
0.248	-0.001932
0.249	-0.002086
0.25	-0.002136
0.251	-0.002324
0.252	-0.002442
0.253	-0.002635
0.254	-0.002745
0.255	-0.002928
0.256	-0.002973
0.257	-0.003225
0.258	-0.003358
0.259	-0.003595
0.26	-0.003654
0.261	-0.003833
0.262	-0.003935
0.263	-0.00417
0.264	-0.004285
0.265	-0.004421
0.266	-0.004587
0.267	-0.00475
0.268	-0.004893
0.269	-0.005064
0.27	-0.005187
0.271	-0.005391
0.272	-0.005491
0.273	-0.00539
0.274	-0.005301
0.275	-0.00521
0.276	-0.005022
0.277	-0.004893
0.278	-0.004736
0.279	-0.004602
0.28	-0.004466
0.281	-0.004301
0.282	-0.004177
0.283	-0.003966
0.284	-0.003848
0.285	-0.003686
0.286	-0.003553
0.287	-0.003363
0.288	-0.003226
0.289	-0.003085
0.29	-0.002962
0.291	-0.002756
0.292	-0.002612
0.293	-0.002437
0.294	-0.002349
0.295	-0.002119
0.296	-0.002029
0.297	-0.002026
0.298	-0.002014
0.299	-0.002005
0.3	-0.00206
0.301	-0.00206
0.302	-0.002062
0.303	-0.002082
0.304	-0.002083
0.305	-0.002135
0.306	-0.002135
0.307	-0.002174
0.308	-0.002211
0.309	-0.002246
0.31	-0.002249
0.311	-0.002276
0.312	-0.002313
0.313	-0.002296
0.314	-0.002303
0.315	-0.002306
0.316	-0.002332
0.317	-0.002345
0.318	-0.002288
0.319	-0.002301
0.32	-0.002288
0.321	-0.00235
0.322	-0.002307
0.323	-0.00234
0.324	-0.002291
0.325	-0.002305
0.326	-0.002288
0.327	-0.002318
0.328	-0.002297
0.329	-0.002306
0.33	-0.002316
0.331	-0.002299
0.332	-0.002334
0.333	-0.002324
0.334	-0.002277
0.335	-0.002325
0.336	-0.00233
0.337	-0.002317
0.338	-0.002321
0.339	-0.002273
0.34	-0.002264
0.341	-0.002324
0.342	-0.002275
0.343	-0.002311
0.344	-0.0023
0.345	-0.002315
0.346	-0.002292
0.347	-0.002306
0.348	-0.002324
0.349	-0.002326
0.35	-0.002277
0.351	-0.002309
0.352	-0.00232
0.353	-0.002284
0.354	-0.002332
0.355	-0.002314
0.356	-0.002336
0.357	-0.002352
0.358	-0.00234
0.359	-0.00229
0.36	-0.002309
0.361	-0.002329
0.362	-0.002311
0.363	-0.00234
0.364	-0.002345
0.365	-0.002307
0.366	-0.00234
0.367	-0.002357
0.368	-0.002297
0.369	-0.002388
0.37	-0.002348
0.371	-0.002365
0.372	-0.002337
0.373	-0.00235
0.374	-0.002373
0.375	-0.002339
0.376	-0.002327
0.377	-0.002365
0.378	-0.002335
0.379	-0.002306
0.38	-0.002377
0.381	-0.00239
0.382	-0.002415
0.383	-0.002383
0.384	-0.002407
0.385	-0.002374
0.386	-0.002395
0.387	-0.002372
0.388	-0.002406
0.389	-0.002428
0.39	-0.002371
0.391	-0.00241
0.392	-0.002377
0.393	-0.002403
0.394	-0.002438
0.395	-0.002438
0.396	-0.002372
0.397	-0.002412
0.398	-0.002441
0.399	-0.002403
0.4	-0.002407
0.401	-0.002429
0.402	-0.002401
0.403	-0.00244
0.404	-0.002407
0.405	-0.00245
0.406	-0.002437
0.407	-0.002467
0.408	-0.002467
0.409	-0.002489
0.41	-0.002476
0.411	-0.002477
0.412	-0.002432
0.413	-0.002486
0.414	-0.002438
0.415	-0.002489
0.416	-0.002481
0.417	-0.002482
0.418	-0.002473
0.419	-0.002516
0.42	-0.002502
0.421	-0.002493
0.422	-0.00255
0.423	-0.002467
0.424	-0.002514
0.425	-0.002467
0.426	-0.002512
0.427	-0.002487
0.428	-0.002537
0.429	-0.002502
0.43	-0.002531
0.431	-0.002544
0.432	-0.002539
0.433	-0.002547
0.434	-0.00253
0.435	-0.002534
0.436	-0.002502
0.437	-0.00254
0.438	-0.00251
0.439	-0.00253
0.44	-0.002534
0.441	-0.002583
0.442	-0.002563
0.443	-0.002578
0.444	-0.002546
0.445	-0.002575
0.446	-0.002575
0.447	-0.002573
0.448	-0.00256
0.449	-0.002599
0.45	-0.00255
0.451	-0.002548
0.452	-0.00261
0.453	-0.002567
0.454	-0.002591
0.455	-0.002644
0.456	-0.002616
0.457	-0.002627
0.458	-0.002588
0.459	-0.002614
0.46	-0.002571
0.461	-0.002628
0.462	-0.002579
0.463	-0.002624
0.464	-0.002609
0.465	-0.002684
0.466	-0.002664
0.467	-0.002671
0.468	-0.002647
0.469	-0.002665
0.47	-0.002662
0.471	-0.002648
0.472	-0.002727
0.473	-0.002654
0.474	-0.002698
0.475	-0.002692
0.476	-0.002648
0.477	-0.002703
0.478	-0.002691
0.479	-0.002733
0.48	-0.002714
0.481	-0.002752
0.482	-0.002784
0.483	-0.002783
0.484	-0.00279
0.485	-0.002735
0.486	-0.002755
0.487	-0.002786
0.488	-0.002763
0.489	-0.002836
0.49	-0.002803
0.491	-0.002835
0.492	-0.00282
0.493	-0.002822
0.494	-0.002855
0.495	-0.002861
0.496	-0.00287
0.497	-0.002909
0.498	-0.00287
0.499	-0.002845
0.5	-0.002884
0.501	-0.002866
0.502	-0.002914
0.503	-0.002882
0.504	-0.002902
0.505	-0.002912
0.506	-0.002939
0.507	-0.002915
0.508	-0.002926
0.509	-0.002893
0.51	-0.002861
0.511	-0.002945
0.512	-0.002885
0.513	-0.002883
0.514	-0.002888
0.515	-0.002924
0.516	-0.002894
0.517	-0.002876
0.518	-0.002906
0.519	-0.002922
0.52	-0.002884
0.521	-0.002848
0.522	-0.002833
0.523	-0.002855
0.524	-0.00288
0.525	-0.002824
0.526	-0.002789
0.527	-0.002829
0.528	-0.002884
0.529	-0.002869
0.53	-0.002845
0.531	-0.002842
0.532	-0.002784
0.533	-0.002817
0.534	-0.002785
0.535	-0.002757
0.536	-0.002759
0.537	-0.002762
0.538	-0.00274
0.539	-0.002771
0.54	-0.002747
0.541	-0.002704
0.542	-0.002664
0.543	-0.0027
0.544	-0.002701
0.545	-0.002629
0.546	-0.002655
0.547	-0.002595
0.548	-0.002589
0.549	-0.002569
0.55	-0.00257
0.551	-0.002547
0.552	-0.002485
0.553	-0.002504
0.554	-0.002452
0.555	-0.002436
0.556	-0.002418
0.557	-0.002437
0.558	-0.002429
0.559	-0.002444
0.56	-0.002395
0.561	-0.002436
0.562	-0.002397
0.563	-0.002401
0.564	-0.002426
0.565	-0.002358
0.566	-0.002373
0.567	-0.002323
0.568	-0.00233
0.569	-0.002328
0.57	-0.002344
0.571	-0.002323
0.572	-0.002334
0.573	-0.002359
0.574	-0.0023
0.575	-0.002341
0.576	-0.002373
0.577	-0.002336
0.578	-0.002288
0.579	-0.00232
0.58	-0.002278
0.581	-0.002296
0.582	-0.002357
0.583	-0.002314
0.584	-0.002261
0.585	-0.002284
0.586	-0.002316
0.587	-0.002291
0.588	-0.002337
0.589	-0.002316
0.59	-0.002286
0.591	-0.002337
0.592	-0.002324
0.593	-0.002274
0.594	-0.002287
0.595	-0.002341
0.596	-0.002325
0.597	-0.002292
0.598	-0.002318
0.599	-0.002351
0.6	-0.002276
0.601	-0.002307
0.602	-0.002294
0.603	-0.002304
0.604	-0.002325
0.605	-0.002311
0.606	-0.0023
0.607	-0.002323
0.608	-0.002289
0.609	-0.00229
0.61	-0.002305
0.611	-0.00229
0.612	-0.002316
0.613	-0.002312
0.614	-0.002304
0.615	-0.002311
0.616	-0.00231
0.617	-0.002342
0.618	-0.002275
0.619	-0.002345
0.62	-0.002299
0.621	-0.002305
0.622	-0.002326
0.623	-0.002333
0.624	-0.002317
0.625	-0.002292
0.626	-0.002276
0.627	-0.00228
0.628	-0.002327
0.629	-0.002312
0.63	-0.002276
0.631	-0.002308
0.632	-0.00231
0.633	-0.00231
0.634	-0.00232
0.635	-0.002315
0.636	-0.002336
0.637	-0.002335
0.638	-0.002276
0.639	-0.002335
0.64	-0.002288
0.641	-0.002291
0.642	-0.002315
0.643	-0.002324
0.644	-0.002308
0.645	-0.002343
0.646	-0.002315
0.647	-0.002338
0.648	-0.002294
0.649	-0.002312
0.65	-0.002348
0.651	-0.002326
0.652	-0.002318
0.653	-0.002287
0.654	-0.00232
0.655	-0.002309
0.656	-0.002337
0.657	-0.002333
0.658	-0.002324
0.659	-0.002344
0.66	-0.0023
0.661	-0.002347
0.662	-0.002304
0.663	-0.002337
0.664	-0.00228
0.665	-0.002334
0.666	-0.002299
0.667	-0.002304
0.668	-0.002312
0.669	-0.002334
0.67	-0.002338
0.671	-0.002316
0.672	-0.002276
0.673	-0.002336
0.674	-0.00232
0.675	-0.002269
0.676	-0.002327
0.677	-0.002271
0.678	-0.002364
0.679	-0.002335
0.68	-0.002316
0.681	-0.002352
0.682	-0.002292
0.683	-0.002339
0.684	-0.002329
0.685	-0.002272
0.686	-0.002289
0.687	-0.002342
0.688	-0.002267
0.689	-0.002288
0.69	-0.002306
0.691	-0.002316
0.692	-0.002302
0.693	-0.002347
0.694	-0.002308
0.695	-0.002329
0.696	-0.002318
0.697	-0.002332
0.698	-0.002276
0.699	-0.002296
0.7	-0.002333
0.701	-0.002274
0.702	-0.002291
0.703	-0.002324
0.704	-0.002326
0.705	-0.002313
0.706	-0.002308
0.707	-0.002302
0.708	-0.002284
0.709	-0.002302
0.71	-0.002272
0.711	-0.002307
0.712	-0.00232
0.713	-0.002294
0.714	-0.002333
0.715	-0.002324
0.716	-0.00232
0.717	-0.002339
0.718	-0.002333
0.719	-0.00232
0.72	-0.002321
0.721	-0.002248
0.722	-0.002318
0.723	-0.002277
0.724	-0.002354
0.725	-0.002336
0.726	-0.00232
0.727	-0.002289
0.728	-0.002353
0.729	-0.002338
0.73	-0.00232
0.731	-0.002337
0.732	-0.002319
0.733	-0.00232
0.734	-0.002284
0.735	-0.002294
0.736	-0.002337
0.737	-0.002338
0.738	-0.002291
0.739	-0.002309
0.74	-0.002346
0.741	-0.002321
0.742	-0.002325
0.743	-0.0023
0.744	-0.002314
0.745	-0.002307
0.746	-0.002345
0.747	-0.002326
0.748	-0.002322
0.749	-0.002271
0.75	-0.002341
0.751	-0.002295
0.752	-0.002335
0.753	-0.002339
0.754	-0.002301
0.755	-0.002301
0.756	-0.002264
0.757	-0.0023
0.758	-0.002289
0.759	-0.002312
0.76	-0.002276
0.761	-0.002365
0.762	-0.002331
0.763	-0.002336
0.764	-0.002323
0.765	-0.002357
0.766	-0.002308
0.767	-0.002262
0.768	-0.002308
0.769	-0.002304
0.77	-0.002319
0.771	-0.002317
0.772	-0.002288
0.773	-0.002314
0.774	-0.002337
0.775	-0.002294
0.776	-0.002314
0.777	-0.002318
0.778	-0.002338
0.779	-0.002312
0.78	-0.002306
0.781	-0.002312
0.782	-0.0023
0.783	-0.00236
0.784	-0.00227
0.785	-0.002305
0.786	-0.002307
0.787	-0.002343
0.788	-0.002343
0.789	-0.002337
0.79	-0.002302
0.791	-0.002324
0.792	-0.002345
0.793	-0.002254
0.794	-0.002317
0.795	-0.002289
0.796	-0.002319
0.797	-0.002276
0.798	-0.00234
0.799	-0.002284
0.8	-0.002319
0.801	-0.002336
0.802	-0.002272
0.803	-0.00234
0.804	-0.002284
0.805	-0.002324
0.806	-0.002286
0.807	-0.002305
0.808	-0.002312
0.809	-0.002341
0.81	-0.002284
0.811	-0.002318
0.812	-0.002319
0.813	-0.002295
0.814	-0.002325
0.815	-0.002281
0.816	-0.002324
0.817	-0.002274
0.818	-0.002309
0.819	-0.002326
0.82	-0.002318
0.821	-0.002314
0.822	-0.002285
0.823	-0.002352
0.824	-0.002341
0.825	-0.002338
0.826	-0.002345
0.827	-0.002377
0.828	-0.002384
0.829	-0.002363
0.83	-0.002376
0.831	-0.002438
0.832	-0.002436
0.833	-0.002498
0.834	-0.002486
0.835	-0.002487
0.836	-0.002519
0.837	-0.002493
0.838	-0.002531
0.839	-0.002558
0.84	-0.002555
0.841	-0.002555
0.842	-0.002566
0.843	-0.002558
0.844	-0.002585
0.845	-0.002563
0.846	-0.002597
0.847	-0.002604
0.848	-0.002609
0.849	-0.002656
0.85	-0.002588
0.851	-0.002644
0.852	-0.002633
0.853	-0.002697
0.854	-0.002678
0.855	-0.002639
0.856	-0.002668
0.857	-0.002682
0.858	-0.002667
0.859	-0.002657
0.86	-0.002668
0.861	-0.002687
0.862	-0.002668
0.863	-0.002623
0.864	-0.002667
0.865	-0.002658
0.866	-0.002672
0.867	-0.002677
0.868	-0.002675
0.869	-0.002677
0.87	-0.002642
0.871	-0.002652
0.872	-0.002636
0.873	-0.002642
0.874	-0.002639
0.875	-0.002643
0.876	-0.002585
0.877	-0.002607
0.878	-0.002602
0.879	-0.002649
0.88	-0.002579
0.881	-0.002604
0.882	-0.002607
0.883	-0.002561
0.884	-0.00257
0.885	-0.00251
0.886	-0.00251
0.887	-0.002495
0.888	-0.002512
0.889	-0.002437
0.89	-0.00249
0.891	-0.002482
0.892	-0.002466
0.893	-0.002391
0.894	-0.002482
0.895	-0.00245
0.896	-0.002369
0.897	-0.00239
0.898	-0.002322
0.899	-0.002353
0.9	-0.002337
0.901	-0.002335
0.902	-0.002296
0.903	-0.002312
0.904	-0.002282
0.905	-0.002335
0.906	-0.002303
0.907	-0.002327
0.908	-0.002292
0.909	-0.00232
0.91	-0.002289
0.911	-0.002321
0.912	-0.002349
0.913	-0.002287
0.914	-0.002309
0.915	-0.002304
0.916	-0.002338
0.917	-0.002286
0.918	-0.002332
0.919	-0.002312
0.92	-0.002286
0.921	-0.002324
0.922	-0.002289
0.923	-0.002315
0.924	-0.002287
0.925	-0.00232
0.926	-0.002283
0.927	-0.002306
0.928	-0.002337
0.929	-0.002303
0.93	-0.002365
0.931	-0.002302
0.932	-0.002332
0.933	-0.002324
0.934	-0.002331
0.935	-0.002296
0.936	-0.002335
0.937	-0.002329
0.938	-0.002284
0.939	-0.002328
0.94	-0.00232
0.941	-0.002363
0.942	-0.002329
0.943	-0.002325
0.944	-0.002295
0.945	-0.002319
0.946	-0.002284
0.947	-0.002322
0.948	-0.002289
0.949	-0.002312
0.95	-0.002284
0.951	-0.002339
0.952	-0.002328
0.953	-0.002319
0.954	-0.002345
0.955	-0.002322
0.956	-0.002333
0.957	-0.002282
0.958	-0.00229
0.959	-0.002284
0.96	-0.002302
0.961	-0.002289
0.962	-0.002318
0.963	-0.002327
0.964	-0.00231
0.965	-0.002333
0.966	-0.002303
0.967	-0.002326
0.968	-0.002277
0.969	-0.002347
0.97	-0.002293
0.971	-0.00228
0.972	-0.002318
0.973	-0.002313
0.974	-0.002317
0.975	-0.002308
0.976	-0.00233
0.977	-0.002341
0.978	-0.002337
0.979	-0.002317
0.98	-0.002292
0.981	-0.002302
0.982	-0.002294
0.983	-0.002264
0.984	-0.002265
0.985	-0.002167
0.986	-0.002224
0.987	-0.002164
0.988	-0.002163
0.989	-0.002195
0.99	-0.00209
0.991	-0.002097
0.992	-0.002046
0.993	-0.00204
0.994	-0.002009
0.995	-0.001998
0.996	-0.001934
0.997	-0.001991
0.998	-0.001914
0.999	-0.002076
1	-0.002158
1.001	-0.002324
1.002	-0.002441
1.003	-0.002617
1.004	-0.002704
1.005	-0.002902
1.006	-0.003023
1.007	-0.003235
1.008	-0.003346
1.009	-0.00353
1.01	-0.003669
1.011	-0.003909
1.012	-0.003952
1.013	-0.004151
1.014	-0.004308
1.015	-0.004461
1.016	-0.004549
1.017	-0.004774
1.018	-0.004885
1.019	-0.005077
1.02	-0.005172
1.021	-0.005401
1.022	-0.005485
1.023	-0.005386
1.024	-0.005334
1.025	-0.00514
1.026	-0.005048
1.027	-0.004868
1.028	-0.004778
1.029	-0.00459
1.03	-0.004471
1.031	-0.004286
1.032	-0.004162
1.033	-0.004005
1.034	-0.003862
1.035	-0.003708
1.036	-0.003547
1.037	-0.003411
1.038	-0.003213
1.039	-0.003031
1.04	-0.002917
1.041	-0.002743
1.042	-0.002623
1.043	-0.002442
1.044	-0.002337
1.045	-0.002134
1.046	-0.002051
1.047	-0.001998
1.048	-0.002014
1.049	-0.002013
1.05	-0.002004
1.051	-0.002074
1.052	-0.002042
1.053	-0.002105
1.054	-0.002092
1.055	-0.002118
1.056	-0.002167
1.057	-0.002217
1.058	-0.002191
1.059	-0.002209
1.06	-0.002224
1.061	-0.002264
1.062	-0.002308
1.063	-0.002324
1.064	-0.002329
1.065	-0.002352
1.066	-0.002312
1.067	-0.002304
1.068	-0.00232
1.069	-0.002313
1.07	-0.002348
1.071	-0.00233
1.072	-0.002289
1.073	-0.002292
1.074	-0.002324
1.075	-0.002334
1.076	-0.002348
1.077	-0.002318
1.078	-0.002288
1.079	-0.002345
1.08	-0.002297
1.081	-0.002308
1.082	-0.002329
1.083	-0.002322
1.084	-0.002304
1.085	-0.002281
1.086	-0.002345
1.087	-0.002335
1.088	-0.002292
1.089	-0.002302
1.09	-0.002312
1.091	-0.002334
1.092	-0.002329
1.093	-0.002312
1.094	-0.002354
1.095	-0.002324
1.096	-0.002333
1.097	-0.002321
1.098	-0.002278
1.099	-0.002333
1.1	-0.002303
1.101	-0.002312
1.102	-0.002288
1.103	-0.002373
1.104	-0.002333
1.105	-0.002365
1.106	-0.002338
1.107	-0.002341
1.108	-0.002329
1.109	-0.002344
1.11	-0.002307
1.111	-0.002367
1.112	-0.002353
1.113	-0.002264
1.114	-0.002335
1.115	-0.00232
1.116	-0.002342
1.117	-0.002354
1.118	-0.002347
1.119	-0.002403
1.12	-0.002344
1.121	-0.002365
1.122	-0.0023
1.123	-0.00235
1.124	-0.002333
1.125	-0.002361
1.126	-0.002297
1.127	-0.002358
1.128	-0.002408
1.129	-0.0024
1.13	-0.002361
1.131	-0.002377
1.132	-0.002409
1.133	-0.002352
1.134	-0.002384
1.135	-0.002356
1.136	-0.002401
1.137	-0.002412
1.138	-0.002382
1.139	-0.002361
1.14	-0.002405
1.141	-0.002445
1.142	-0.002431
1.143	-0.002414
1.144	-0.002396
1.145	-0.002457
1.146	-0.002399
1.147	-0.002424
1.148	-0.00236
1.149	-0.002429
1.15	-0.002423
1.151	-0.002444
1.152	-0.002442
1.153	-0.00249
1.154	-0.002438
1.155	-0.002438
1.156	-0.002436
1.157	-0.002477
1.158	-0.002465
1.159	-0.002423
1.16	-0.002485
1.161	-0.002488
1.162	-0.002525
1.163	-0.002438
1.164	-0.00245
1.165	-0.002506
1.166	-0.002492
1.167	-0.002508
1.168	-0.002463
1.169	-0.002502
1.17	-0.002468
1.171	-0.002526
1.172	-0.002468
1.173	-0.00251
1.174	-0.002534
1.175	-0.002478
1.176	-0.002478
1.177	-0.002499
1.178	-0.002516
1.179	-0.002472
1.18	-0.002536
1.181	-0.002489
1.182	-0.002538
1.183	-0.002518
1.184	-0.002586
1.185	-0.002533
1.186	-0.002568
1.187	-0.002534
1.188	-0.002531
1.189	-0.002543
1.19	-0.002538
1.191	-0.00256
1.192	-0.002516
1.193	-0.002562
1.194	-0.002543
1.195	-0.002582
1.196	-0.002583
1.197	-0.002595
1.198	-0.002572
1.199	-0.002597
1.2	-0.002576
1.201	-0.002536
1.202	-0.002603
1.203	-0.002607
1.204	-0.002628
1.205	-0.002596
1.206	-0.002623
1.207	-0.002596
1.208	-0.002604
1.209	-0.002605
1.21	-0.002595
1.211	-0.002641
1.212	-0.002629
1.213	-0.002618
1.214	-0.002586
1.215	-0.002653
1.216	-0.002632
1.217	-0.00262
1.218	-0.002619
1.219	-0.002663
1.22	-0.002677
1.221	-0.002668
1.222	-0.002681
1.223	-0.002677
1.224	-0.002672
1.225	-0.002672
1.226	-0.002717
1.227	-0.00269
1.228	-0.002756
1.229	-0.002679
1.23	-0.002722
1.231	-0.002734
1.232	-0.002734
1.233	-0.002768
1.234	-0.002747
1.235	-0.002799
1.236	-0.00278
1.237	-0.002822
1.238	-0.002796
1.239	-0.002828
1.24	-0.002778
1.241	-0.002871
1.242	-0.002793
1.243	-0.002828
1.244	-0.00285
1.245	-0.002857
1.246	-0.00286
1.247	-0.002898
1.248	-0.002866
1.249	-0.002884
1.25	-0.002852
1.251	-0.00289
1.252	-0.002866
1.253	-0.002906
1.254	-0.002886
1.255	-0.002933
1.256	-0.002916
1.257	-0.002925
1.258	-0.002891
1.259	-0.002898
1.26	-0.002913
1.261	-0.002938
1.262	-0.002887
1.263	-0.00291
1.264	-0.002878
1.265	-0.002901
1.266	-0.002903
1.267	-0.002907
1.268	-0.002861
1.269	-0.002874
1.27	-0.002904
1.271	-0.00287
1.272	-0.002901
1.273	-0.002883
1.274	-0.002876
1.275	-0.002862
1.276	-0.002829
1.277	-0.002839
1.278	-0.002819
1.279	-0.002833
1.28	-0.002805
1.281	-0.002825
1.282	-0.002826
1.283	-0.00281
1.284	-0.0028
1.285	-0.002801
1.286	-0.002782
1.287	-0.002776
1.288	-0.00274
1.289	-0.002728
1.29	-0.002733
1.291	-0.002725
1.292	-0.002688
1.293	-0.002668
1.294	-0.002648
1.295	-0.002662
1.296	-0.002631
1.297	-0.00258
1.298	-0.002619
1.299	-0.002556
1.3	-0.00256
1.301	-0.002544
1.302	-0.002512
1.303	-0.002478
1.304	-0.002466
1.305	-0.002446
1.306	-0.002427
1.307	-0.002414
1.308	-0.002445
1.309	-0.002434
1.31	-0.002373
1.311	-0.002393
1.312	-0.002386
1.313	-0.002389
1.314	-0.002395
1.315	-0.00236
1.316	-0.002355
1.317	-0.002334
1.318	-0.002375
1.319	-0.002378
1.32	-0.00234
1.321	-0.002295
1.322	-0.002279
1.323	-0.002312
1.324	-0.00231
1.325	-0.0023
1.326	-0.002272
1.327	-0.002292
1.328	-0.002345
1.329	-0.002296
1.33	-0.0023
1.331	-0.002349
1.332	-0.002332
1.333	-0.002292
1.334	-0.002324
1.335	-0.002296
1.336	-0.002296
1.337	-0.002286
1.338	-0.002346
1.339	-0.002333
1.34	-0.002304
1.341	-0.002296
1.342	-0.002294
1.343	-0.002333
1.344	-0.002363
1.345	-0.002328
1.346	-0.002318
1.347	-0.002302
1.348	-0.002274
1.349	-0.002306
1.35	-0.002272
1.351	-0.002293
1.352	-0.002289
1.353	-0.002317
1.354	-0.002312
1.355	-0.002339
1.356	-0.002292
1.357	-0.00233
1.358	-0.002282
1.359	-0.002281
1.36	-0.002278
1.361	-0.002285
1.362	-0.002304
1.363	-0.002271
1.364	-0.002324
1.365	-0.002328
1.366	-0.002306
1.367	-0.002341
1.368	-0.002286
1.369	-0.002284
1.37	-0.002325
1.371	-0.002302
1.372	-0.002276
1.373	-0.002367
1.374	-0.002283
1.375	-0.00232
1.376	-0.002298
1.377	-0.002361
1.378	-0.002324
1.379	-0.002312
1.38	-0.002312
1.381	-0.00232
1.382	-0.002323
1.383	-0.00232
1.384	-0.002341
1.385	-0.002278
1.386	-0.002336
1.387	-0.002307
1.388	-0.002302
1.389	-0.002282
1.39	-0.002321
1.391	-0.002307
1.392	-0.002277
1.393	-0.002297
1.394	-0.00228
1.395	-0.002308
1.396	-0.002274
1.397	-0.002305
1.398	-0.002288
1.399	-0.002333
1.4	-0.002284
1.401	-0.002316
1.402	-0.002337
1.403	-0.002312
1.404	-0.002279
1.405	-0.002287
1.406	-0.002311
1.407	-0.002288
1.408	-0.0023
1.409	-0.002292
1.41	-0.002316
1.411	-0.002335
1.412	-0.00232
1.413	-0.002369
1.414	-0.002335
1.415	-0.002339
1.416	-0.002306
1.417	-0.002308
1.418	-0.002304
1.419	-0.002341
1.42	-0.002286
1.421	-0.002315
1.422	-0.002324
1.423	-0.002327
1.424	-0.00233
1.425	-0.002371
1.426	-0.002272
1.427	-0.002319
1.428	-0.002316
1.429	-0.002272
1.43	-0.00232
1.431	-0.002276
1.432	-0.002322
1.433	-0.002283
1.434	-0.002284
1.435	-0.002304
1.436	-0.002324
1.437	-0.002303
1.438	-0.002347
1.439	-0.002293
1.44	-0.002308
1.441	-0.002319
1.442	-0.002287
1.443	-0.002355
1.444	-0.002304
1.445	-0.002367
1.446	-0.002292
1.447	-0.002291
1.448	-0.002334
1.449	-0.002324
1.45	-0.002316
1.451	-0.002308
1.452	-0.0023
1.453	-0.002278
1.454	-0.002324
1.455	-0.0023
1.456	-0.002278
1.457	-0.002333
1.458	-0.002347
1.459	-0.00229
1.46	-0.002298
1.461	-0.002344
1.462	-0.002332
1.463	-0.002332
1.464	-0.002295
1.465	-0.002328
1.466	-0.002289
1.467	-0.002296
1.468	-0.002265
1.469	-0.002273
1.47	-0.00229
1.471	-0.002253
1.472	-0.002333
1.473	-0.002323
1.474	-0.00234
1.475	-0.0023
1.476	-0.002313
1.477	-0.00228
1.478	-0.002352
1.479	-0.002297
1.48	-0.002332
1.481	-0.002281
1.482	-0.002345
1.483	-0.002318
1.484	-0.00224
1.485	-0.002314
1.486	-0.002292
1.487	-0.002286
1.488	-0.002289
1.489	-0.002356
1.49	-0.00229
1.491	-0.002329
1.492	-0.002255
1.493	-0.002288
1.494	-0.002329
1.495	-0.00232
1.496	-0.002266
1.497	-0.002329
1.498	-0.002329
1.499	-0.002324
1.5	-0.002287
1.501	-0.002248
1.502	-0.002322
1.503	-0.002304
1.504	-0.002298
1.505	-0.002276
1.506	-0.002308
1.507	-0.002328
1.508	-0.0023
1.509	-0.002299
1.51	-0.002268
1.511	-0.002311
1.512	-0.002292
1.513	-0.002349
1.514	-0.002235
1.515	-0.002293
1.516	-0.002337
1.517	-0.002343
1.518	-0.00233
1.519	-0.002326
1.52	-0.002347
1.521	-0.002323
1.522	-0.002296
1.523	-0.002346
1.524	-0.002318
1.525	-0.002305
1.526	-0.002319
1.527	-0.002332
1.528	-0.0023
1.529	-0.002321
1.53	-0.002285
1.531	-0.002312
1.532	-0.002296
1.533	-0.002325
1.534	-0.002296
1.535	-0.002307
1.536	-0.002283
1.537	-0.002292
1.538	-0.002285
1.539	-0.002351
1.54	-0.0023
1.541	-0.002328
1.542	-0.002308
1.543	-0.00231
1.544	-0.00231
1.545	-0.002322
1.546	-0.002293
1.547	-0.002317
1.548	-0.002302
1.549	-0.002333
1.55	-0.002315
1.551	-0.002309
1.552	-0.002289
1.553	-0.002361
1.554	-0.002346
1.555	-0.00232
1.556	-0.002307
1.557	-0.002312
1.558	-0.002316
1.559	-0.002302
1.56	-0.00232
1.561	-0.002299
1.562	-0.002287
1.563	-0.002322
1.564	-0.002329
1.565	-0.002298
1.566	-0.002328
1.567	-0.002275
1.568	-0.002324
1.569	-0.002286
1.57	-0.002285
1.571	-0.002268
1.572	-0.002323
1.573	-0.002337
1.574	-0.002322
1.575	-0.00238
1.576	-0.002354
1.577	-0.002413
1.578	-0.002393
1.579	-0.002436
1.58	-0.002409
1.581	-0.002438
1.582	-0.002438
1.583	-0.002442
1.584	-0.002466
1.585	-0.002475
1.586	-0.002513
1.587	-0.002479
1.588	-0.002495
1.589	-0.002543
1.59	-0.002544
1.591	-0.002566
1.592	-0.002562
1.593	-0.002564
1.594	-0.00253
1.595	-0.002595
1.596	-0.00254
1.597	-0.002589
1.598	-0.002593
1.599	-0.002639
1.6	-0.002641
1.601	-0.002622
1.602	-0.002652
1.603	-0.002676
1.604	-0.002649
1.605	-0.002635
1.606	-0.002681
1.607	-0.002656
1.608	-0.002648
1.609	-0.002684
1.61	-0.002703
1.611	-0.002642
1.612	-0.002638
1.613	-0.002668
1.614	-0.002684
1.615	-0.002708
1.616	-0.002656
1.617	-0.002635
1.618	-0.002703
1.619	-0.002682
1.62	-0.002627
1.621	-0.002649
1.622	-0.002646
1.623	-0.002696
1.624	-0.002658
1.625	-0.002661
1.626	-0.002599
1.627	-0.002611
1.628	-0.00259
1.629	-0.002547
1.63	-0.002549
1.631	-0.002561
1.632	-0.002583
1.633	-0.002544
1.634	-0.002536
1.635	-0.002565
1.636	-0.002543
1.637	-0.002534
1.638	-0.002531
1.639	-0.002546
1.64	-0.002456
1.641	-0.002444
1.642	-0.002448
1.643	-0.002472
1.644	-0.002399
1.645	-0.002414
1.646	-0.002384
1.647	-0.002446
1.648	-0.002372
1.649	-0.002351
1.65	-0.002373
1.651	-0.002323
1.652	-0.002316
1.653	-0.002304
1.654	-0.002346
1.655	-0.002296
1.656	-0.002314
1.657	-0.002337
1.658	-0.0023
1.659	-0.002292
1.66	-0.002277
1.661	-0.002312
1.662	-0.002282
1.663	-0.002326
1.664	-0.002264
1.665	-0.002323
1.666	-0.002301
1.667	-0.002329
1.668	-0.002304
1.669	-0.002315
1.67	-0.002293
1.671	-0.002304
1.672	-0.002344
1.673	-0.002331
1.674	-0.002295
1.675	-0.002296
1.676	-0.002337
1.677	-0.002278
1.678	-0.00231
1.679	-0.002312
1.68	-0.002395
1.681	-0.002307
1.682	-0.002329
1.683	-0.002338
1.684	-0.002315
1.685	-0.002334
1.686	-0.002267
1.687	-0.002307
1.688	-0.002272
1.689	-0.002319
1.69	-0.002321
1.691	-0.00233
1.692	-0.002274
1.693	-0.002333
1.694	-0.002302
1.695	-0.002334
1.696	-0.002296
1.697	-0.00228
1.698	-0.002339
1.699	-0.002286
1.7	-0.0023
1.701	-0.002283
1.702	-0.00232
1.703	-0.002296
1.704	-0.002283
1.705	-0.002282
1.706	-0.002315
1.707	-0.002353
1.708	-0.0023
1.709	-0.002345
1.71	-0.002316
1.711	-0.002297
1.712	-0.002304
1.713	-0.002338
1.714	-0.002295
1.715	-0.002341
1.716	-0.002309
1.717	-0.002296
1.718	-0.002359
1.719	-0.002328
1.72	-0.002324
1.721	-0.002327
1.722	-0.002328
1.723	-0.002323
1.724	-0.002315
1.725	-0.002298
1.726	-0.002309
1.727	-0.002289
1.728	-0.00229
1.729	-0.002289
1.73	-0.00227
1.731	-0.002366
1.732	-0.002316
1.733	-0.002308
1.734	-0.002243
1.735	-0.00225
1.736	-0.002237
1.737	-0.002208
1.738	-0.00217
1.739	-0.002122
1.74	-0.002108
1.741	-0.002092
1.742	-0.002089
1.743	-0.002061
1.744	-0.001994
1.745	-0.001965
1.746	-0.001993
1.747	-0.001938
1.748	-0.001897
1.749	-0.002037
1.75	-0.002098
1.751	-0.002382
1.752	-0.002424
1.753	-0.002595
1.754	-0.00277
1.755	-0.002987
1.756	-0.003033
1.757	-0.003246
1.758	-0.003326
1.759	-0.003576
1.76	-0.003627
1.761	-0.003827
1.762	-0.003916
1.763	-0.004169
1.764	-0.004258
1.765	-0.004492
1.766	-0.004605
1.767	-0.004782
1.768	-0.004899
1.769	-0.005093
1.77	-0.005194
1.771	-0.005358
1.772	-0.00543
1.773	-0.005366
1.774	-0.005332
1.775	-0.005148
1.776	-0.005081
1.777	-0.004889
1.778	-0.004758
1.779	-0.004606
1.78	-0.004493
1.781	-0.004303
1.782	-0.00413
1.783	-0.004003
1.784	-0.003907
1.785	-0.003676
1.786	-0.00354
1.787	-0.003365
1.788	-0.00323
1.789	-0.003107
1.79	-0.002943
1.791	-0.002773
1.792	-0.002619
1.793	-0.002439
1.794	-0.00235
1.795	-0.002122
1.796	-0.002042
1.797	-0.001976
1.798	-0.002018
1.799	-0.002023
1.8	-0.002042
1.801	-0.002029
1.802	-0.002066
1.803	-0.002095
1.804	-0.002064
1.805	-0.002086
1.806	-0.002135
1.807	-0.00222
1.808	-0.002179
1.809	-0.002175
1.81	-0.002225
1.811	-0.002298
1.812	-0.002362
1.813	-0.002307
1.814	-0.002312
1.815	-0.0023
1.816	-0.002305
1.817	-0.00231
1.818	-0.002285
1.819	-0.002311
1.82	-0.002305
1.821	-0.002308
1.822	-0.002284
1.823	-0.002288
1.824	-0.002304
1.825	-0.002336
1.826	-0.002324
1.827	-0.002331
1.828	-0.002311
1.829	-0.002312
1.83	-0.002347
1.831	-0.002313
1.832	-0.002289
1.833	-0.002296
1.834	-0.002293
1.835	-0.002287
1.836	-0.002347
1.837	-0.002323
1.838	-0.002342
1.839	-0.002314
1.84	-0.002305
1.841	-0.002298
1.842	-0.002338
1.843	-0.002333
1.844	-0.002305
1.845	-0.002348
1.846	-0.00228
1.847	-0.002333
1.848	-0.002329
1.849	-0.002338
1.85	-0.002295
1.851	-0.002361
1.852	-0.002304
1.853	-0.002292
1.854	-0.002313
1.855	-0.002341
1.856	-0.00232
1.857	-0.00233
1.858	-0.002352
1.859	-0.002333
1.86	-0.002314
1.861	-0.002354
1.862	-0.002365
1.863	-0.002361
1.864	-0.002316
1.865	-0.002345
1.866	-0.002306
1.867	-0.002357
1.868	-0.0023
1.869	-0.002384
1.87	-0.002324
1.871	-0.002376
1.872	-0.002393
1.873	-0.002346
1.874	-0.002355
1.875	-0.002374
1.876	-0.00236
1.877	-0.002329
1.878	-0.002356
1.879	-0.002342
1.88	-0.002377
1.881	-0.002368
1.882	-0.002424
1.883	-0.002436
1.884	-0.002389
1.885	-0.002409
1.886	-0.002346
1.887	-0.002417
1.888	-0.002379
1.889	-0.002414
1.89	-0.002376
1.891	-0.002442
1.892	-0.002385
1.893	-0.002403
1.894	-0.002438
1.895	-0.002406
1.896	-0.002448
1.897	-0.00242
1.898	-0.002438
1.899	-0.002405
1.9	-0.002412
1.901	-0.002379
1.902	-0.002443
1.903	-0.002464
1.904	-0.002456
1.905	-0.002412
1.906	-0.00247
1.907	-0.002494
1.908	-0.002455
1.909	-0.002451
1.91	-0.002466
1.911	-0.00247
1.912	-0.00246
1.913	-0.002479
1.914	-0.002437
1.915	-0.002482
1.916	-0.00245
1.917	-0.002501
1.918	-0.002486
1.919	-0.002528
1.92	-0.002548
1.921	-0.002481
1.922	-0.002525
1.923	-0.002496
1.924	-0.002517
1.925	-0.002493
1.926	-0.002476
1.927	-0.002491
1.928	-0.002497
1.929	-0.002528
1.93	-0.002499
1.931	-0.002528
1.932	-0.002506
1.933	-0.002538
1.934	-0.002506
1.935	-0.002541
1.936	-0.002515
1.937	-0.002559
1.938	-0.002497
1.939	-0.002543
1.94	-0.002538
1.941	-0.002533
1.942	-0.002541
1.943	-0.002575
1.944	-0.002547
1.945	-0.002544
1.946	-0.002559
1.947	-0.002559
1.948	-0.002567
1.949	-0.002564
1.95	-0.002599
1.951	-0.002595
1.952	-0.002636
1.953	-0.002591
1.954	-0.002555
1.955	-0.002615
1.956	-0.002573
1.957	-0.002623
1.958	-0.002581
1.959	-0.002648
1.96	-0.002605
1.961	-0.002596
1.962	-0.002611
1.963	-0.002669
1.964	-0.002639
1.965	-0.002667
1.966	-0.0027
1.967	-0.002673
1.968	-0.002618
1.969	-0.002678
1.97	-0.002642
1.971	-0.002698
1.972	-0.0027
1.973	-0.00266
1.974	-0.002692
1.975	-0.00273
1.976	-0.002682
1.977	-0.002737
1.978	-0.002729
1.979	-0.002722
1.98	-0.002761
1.981	-0.002738
1.982	-0.002729
1.983	-0.002757
1.984	-0.002756
1.985	-0.00279
1.986	-0.002773
1.987	-0.002815
1.988	-0.002833
1.989	-0.002771
1.99	-0.00283
1.991	-0.002833
1.992	-0.002788
1.993	-0.00282
1.994	-0.002864
1.995	-0.002872
1.996	-0.002843
1.997	-0.002841
1.998	-0.002862
1.999	-0.00291
2	-0.002912
2.001	-0.002885
2.002	-0.002878
2.003	-0.002898
2.004	-0.002868
2.005	-0.002859
2.006	-0.002881
2.007	-0.002917
2.008	-0.002898
2.009	-0.00287
2.01	-0.002909
2.011	-0.002919
2.012	-0.002961
2.013	-0.002936
2.014	-0.002902
2.015	-0.002938
2.016	-0.002873
2.017	-0.00288
2.018	-0.002845
2.019	-0.00287
2.02	-0.002833
2.021	-0.002907
2.022	-0.002906
2.023	-0.002878
2.024	-0.002878
2.025	-0.002892
2.026	-0.00288
2.027	-0.002833
2.028	-0.002822
2.029	-0.002828
2.03	-0.002824
2.031	-0.002783
2.032	-0.002823
2.033	-0.002821
2.034	-0.002797
2.035	-0.002807
2.036	-0.002761
2.037	-0.002749
2.038	-0.002814
2.039	-0.002738
2.04	-0.002734
2.041	-0.002686
2.042	-0.002692
2.043	-0.002655
2.044	-0.002623
2.045	-0.002629
2.046	-0.002614
2.047	-0.002592
2.048	-0.002608
2.049	-0.002612
2.05	-0.002581
2.051	-0.002534
2.052	-0.002536
2.053	-0.002468
2.054	-0.002406
2.055	-0.002421
2.056	-0.002424
2.057	-0.002441
2.058	-0.002393
2.059	-0.002377
2.06	-0.002448
2.061	-0.002383
2.062	-0.002376
2.063	-0.002405
2.064	-0.002377
2.065	-0.002374
2.066	-0.00231
2.067	-0.002316
2.068	-0.002352
2.069	-0.002353
2.07	-0.002305
2.071	-0.002365
2.072	-0.002331
2.073	-0.002343
2.074	-0.002328
2.075	-0.002292
2.076	-0.002291
2.077	-0.00232
2.078	-0.002305
2.079	-0.002288
2.08	-0.002359
2.081	-0.002294
2.082	-0.002321
2.083	-0.002294
2.084	-0.002291
2.085	-0.002325
2.086	-0.002312
2.087	-0.00231
2.088	-0.002306
2.089	-0.002318
2.09	-0.002305
2.091	-0.00232
2.092	-0.002208
2.093	-0.002345
2.094	-0.002314
2.095	-0.002345
2.096	-0.002314
2.097	-0.002359
2.098	-0.002336
2.099	-0.002302
2.1	-0.002317
2.101	-0.002318
2.102	-0.00229
2.103	-0.002268
2.104	-0.002288
2.105	-0.00226
2.106	-0.002327
2.107	-0.002328
2.108	-0.002347
2.109	-0.002306
2.11	-0.002331
2.111	-0.002318
2.112	-0.002335
2.113	-0.002337
2.114	-0.002332
2.115	-0.002341
2.116	-0.002272
2.117	-0.002283
2.118	-0.002329
2.119	-0.002309
2.12	-0.002286
2.121	-0.002349
2.122	-0.002292
2.123	-0.002325
2.124	-0.002284
2.125	-0.002278
2.126	-0.002281
2.127	-0.002313
2.128	-0.002286
2.129	-0.002322
2.13	-0.002294
2.131	-0.002275
2.132	-0.002351
2.133	-0.002298
2.134	-0.002326
2.135	-0.002345
2.136	-0.002311
2.137	-0.002291
2.138	-0.002323
2.139	-0.002297
2.14	-0.002286
2.141	-0.002296
2.142	-0.002289
2.143	-0.002299
2.144	-0.002316
2.145	-0.002308
2.146	-0.002311
2.147	-0.002326
2.148	-0.002288
2.149	-0.002332
2.15	-0.0023
2.151	-0.002273
2.152	-0.002325
2.153	-0.00232
2.154	-0.002304
2.155	-0.00232
2.156	-0.002328
2.157	-0.002305
2.158	-0.002294
2.159	-0.002322
2.16	-0.002306
2.161	-0.002311
2.162	-0.002272
2.163	-0.002292
2.164	-0.002258
2.165	-0.002307
2.166	-0.002306
2.167	-0.002337
2.168	-0.002308
2.169	-0.002331
2.17	-0.002327
2.171	-0.002303
2.172	-0.002322
2.173	-0.002318
2.174	-0.002305
2.175	-0.002308
2.176	-0.002333
2.177	-0.002309
2.178	-0.002332
2.179	-0.002291
2.18	-0.002316
2.181	-0.002294
2.182	-0.002309
2.183	-0.002332
2.184	-0.002313
2.185	-0.002302
2.186	-0.002266
2.187	-0.002308
2.188	-0.002312
2.189	-0.002322
2.19	-0.002344
2.191	-0.002328
2.192	-0.002324
2.193	-0.002353
2.194	-0.002313
2.195	-0.002329
2.196	-0.002316
2.197	-0.002262
2.198	-0.002296
2.199	-0.002307
2.2	-0.002334
2.201	-0.00232
2.202	-0.002297
2.203	-0.002312
2.204	-0.002353
2.205	-0.002309
2.206	-0.002309
2.207	-0.002283
2.208	-0.002322
2.209	-0.002313
2.21	-0.00232
2.211	-0.002315
2.212	-0.002311
2.213	-0.002341
2.214	-0.002313
2.215	-0.002301
2.216	-0.002296
2.217	-0.002337
2.218	-0.002329
2.219	-0.002264
2.22	-0.002274
2.221	-0.002318
2.222	-0.002335
2.223	-0.002303
2.224	-0.002332
2.225	-0.00232
2.226	-0.002333
2.227	-0.002315
2.228	-0.00232
2.229	-0.002333
2.23	-0.002324
2.231	-0.002309
2.232	-0.002278
2.233	-0.002309
2.234	-0.002308
2.235	-0.002312
2.236	-0.002291
2.237	-0.002303
2.238	-0.002321
2.239	-0.002317
2.24	-0.002284
2.241	-0.002324
2.242	-0.002316
2.243	-0.002267
2.244	-0.002329
2.245	-0.002275
2.246	-0.00231
2.247	-0.002353
2.248	-0.002334
2.249	-0.002296
2.25	-0.002318
2.251	-0.002327
2.252	-0.002308
2.253	-0.002337
2.254	-0.002304
2.255	-0.002337
2.256	-0.002297
2.257	-0.00233
2.258	-0.002295
2.259	-0.002299
2.26	-0.002256
2.261	-0.002373
2.262	-0.002307
2.263	-0.002344
2.264	-0.002345
2.265	-0.00231
2.266	-0.002333
2.267	-0.002305
2.268	-0.002338
2.269	-0.002294
2.27	-0.002306
2.271	-0.002335
2.272	-0.002313
2.273	-0.002321
2.274	-0.0023
2.275	-0.002328
2.276	-0.002316
2.277	-0.002298
2.278	-0.002289
2.279	-0.002319
2.28	-0.00233
2.281	-0.002331
2.282	-0.002312
2.283	-0.002329
2.284	-0.002315
2.285	-0.002322
2.286	-0.002324
2.287	-0.002344
2.288	-0.002324
2.289	-0.002333
2.29	-0.002333
2.291	-0.002262
2.292	-0.002306
2.293	-0.002305
2.294	-0.002308
2.295	-0.002363
2.296	-0.002324
2.297	-0.002304
2.298	-0.002318
2.299	-0.002341
2.3	-0.002273
2.301	-0.002327
2.302	-0.002304
2.303	-0.002345
2.304	-0.002316
2.305	-0.002304
2.306	-0.002284
2.307	-0.002351
2.308	-0.002306
2.309	-0.002373
2.31	-0.002329
2.311	-0.002316
2.312	-0.002349
2.313	-0.002236
2.314	-0.002332
2.315	-0.002299
2.316	-0.002291
2.317	-0.002297
2.318	-0.002295
2.319	-0.002336
2.32	-0.002316
2.321	-0.002304
2.322	-0.002341
2.323	-0.002313
2.324	-0.002342
2.325	-0.002328
2.326	-0.00232
2.327	-0.002405
2.328	-0.002397
2.329	-0.002383
2.33	-0.002388
2.331	-0.002434
2.332	-0.00246
2.333	-0.002502
2.334	-0.002499
2.335	-0.002487
2.336	-0.0025
2.337	-0.002508
2.338	-0.002461
2.339	-0.002562
2.34	-0.00253
2.341	-0.002562
2.342	-0.002534
2.343	-0.002611
2.344	-0.002552
2.345	-0.00263
2.346	-0.002561
2.347	-0.00262
2.348	-0.002623
2.349	-0.002597
2.35	-0.002632
2.351	-0.00259
2.352	-0.002639
2.353	-0.00266
2.354	-0.002669
2.355	-0.002684
2.356	-0.002697
2.357	-0.002673
2.358	-0.002693
2.359	-0.002658
2.36	-0.002651
2.361	-0.002664
2.362	-0.00267
2.363	-0.00266
2.364	-0.002632
2.365	-0.002718
2.366	-0.002648
2.367	-0.002745
2.368	-0.002677
2.369	-0.002709
2.37	-0.002684
2.371	-0.002639
2.372	-0.00264
2.373	-0.002635
2.374	-0.002633
2.375	-0.00256
2.376	-0.002621
2.377	-0.002632
2.378	-0.002635
2.379	-0.002603
2.38	-0.002609
2.381	-0.002641
2.382	-0.002603
2.383	-0.002595
2.384	-0.002534
2.385	-0.002571
2.386	-0.002506
2.387	-0.002543
2.388	-0.002474
2.389	-0.002506
2.39	-0.002491
2.391	-0.002492
2.392	-0.002511
2.393	-0.002478
2.394	-0.002455
2.395	-0.002425
2.396	-0.002406
2.397	-0.002324
2.398	-0.002395
2.399	-0.002329
2.4	-0.00232
2.401	-0.002345
2.402	-0.002369
2.403	-0.002336
2.404	-0.002341
2.405	-0.002354
2.406	-0.002295
2.407	-0.002345
2.408	-0.002303
2.409	-0.002342
2.41	-0.002273
2.411	-0.002323
2.412	-0.002295
2.413	-0.00232
2.414	-0.002275
2.415	-0.002357
2.416	-0.002318
2.417	-0.002279
2.418	-0.002294
2.419	-0.002283
2.42	-0.002308
2.421	-0.002305
2.422	-0.002315
2.423	-0.002309
2.424	-0.00231
2.425	-0.002304
2.426	-0.002324
2.427	-0.002327
2.428	-0.002328
2.429	-0.002309
2.43	-0.002291
2.431	-0.002308
2.432	-0.002291
2.433	-0.002286
2.434	-0.002299
2.435	-0.00235
2.436	-0.002299
2.437	-0.002287
2.438	-0.002327
2.439	-0.002318
2.44	-0.002341
2.441	-0.002296
2.442	-0.002312
2.443	-0.002298
2.444	-0.002338
2.445	-0.00232
2.446	-0.002311
2.447	-0.002344
2.448	-0.002278
2.449	-0.002357
2.45	-0.002332
2.451	-0.002316
2.452	-0.002314
2.453	-0.00232
2.454	-0.002289
2.455	-0.002373
2.456	-0.002284
2.457	-0.002341
2.458	-0.002275
2.459	-0.00226
2.46	-0.002285
2.461	-0.002306
2.462	-0.00228
2.463	-0.002305
2.464	-0.002336
2.465	-0.002313
2.466	-0.002336
2.467	-0.002353
2.468	-0.002276
2.469	-0.002351
2.47	-0.002317
2.471	-0.002299
2.472	-0.002284
2.473	-0.002308
2.474	-0.002288
2.475	-0.00235
2.476	-0.002284
2.477	-0.002335
2.478	-0.002293
2.479	-0.002326
2.48	-0.002302
2.481	-0.002334
2.482	-0.002305
2.483	-0.002276
2.484	-0.00227
2.485	-0.00225
2.486	-0.00221
2.487	-0.002206
2.488	-0.002118
2.489	-0.002133
2.49	-0.002119
2.491	-0.002096
2.492	-0.002028
2.493	-0.001997
2.494	-0.002025
2.495	-0.001967
2.496	-0.001959
2.497	-0.00193
2.498	-0.001942
2.499	-0.002066
2.5	-0.002118
2.501	-0.002306
2.502	-0.002415
2.503	-0.00262
2.504	-0.002688
2.505	-0.00287
2.506	-0.003022
2.507	-0.003222
2.508	-0.00335
2.509	-0.003564
2.51	-0.003635
2.511	-0.003874
2.512	-0.003971
2.513	-0.004179
2.514	-0.004237
2.515	-0.004478
2.516	-0.004537
2.517	-0.004711
2.518	-0.004887
2.519	-0.005048
2.52	-0.005167
2.521	-0.005391
2.522	-0.005447
2.523	-0.005369
2.524	-0.005321
2.525	-0.00518
2.526	-0.005025
2.527	-0.004895
2.528	-0.004744
2.529	-0.004576
2.53	-0.004505
2.531	-0.004277
2.532	-0.0042
2.533	-0.004013
2.534	-0.003846
2.535	-0.003673
2.536	-0.003591
2.537	-0.003371
2.538	-0.003229
2.539	-0.003032
2.54	-0.002941
2.541	-0.002732
2.542	-0.002597
2.543	-0.00246
2.544	-0.002323
2.545	-0.002192
2.546	-0.002034
2.547	-0.002044
2.548	-0.002004
2.549	-0.00203
2.55	-0.002046
2.551	-0.002006
2.552	-0.002035
2.553	-0.00205
2.554	-0.0021
2.555	-0.002143
2.556	-0.002163
2.557	-0.002179
2.558	-0.002199
2.559	-0.002188
2.56	-0.002269
2.561	-0.002316
2.562	-0.002271
2.563	-0.00227
2.564	-0.002269
2.565	-0.002331
2.566	-0.002291
2.567	-0.002316
2.568	-0.002304
2.569	-0.002328
2.57	-0.002269
2.571	-0.002316
2.572	-0.002301
2.573	-0.00232
2.574	-0.002311
2.575	-0.002284
2.576	-0.00231
2.577	-0.002291
2.578	-0.00237
2.579	-0.002313
2.58	-0.00229
2.581	-0.00232
2.582	-0.002335
2.583	-0.002318
2.584	-0.002297
2.585	-0.002343
2.586	-0.002282
2.587	-0.002293
2.588	-0.002281
2.589	-0.002337
2.59	-0.002317
2.591	-0.002316
2.592	-0.002309
2.593	-0.002299
2.594	-0.002351
2.595	-0.002281
2.596	-0.002349
2.597	-0.002304
2.598	-0.002351
2.599	-0.002312
2.6	-0.002288
2.601	-0.002296
2.602	-0.00228
2.603	-0.002277
2.604	-0.002308
2.605	-0.002337
2.606	-0.002324
2.607	-0.002348
2.608	-0.002398
2.609	-0.002308
2.61	-0.002292
2.611	-0.002369
2.612	-0.002276
2.613	-0.002322
2.614	-0.002292
2.615	-0.002393
2.616	-0.002336
2.617	-0.002317
2.618	-0.002336
2.619	-0.002339
2.62	-0.002352
2.621	-0.002344
2.622	-0.002349
2.623	-0.00235
2.624	-0.002342
2.625	-0.00234
2.626	-0.002349
2.627	-0.002354
2.628	-0.002381
2.629	-0.002398
2.63	-0.002376
2.631	-0.002381
2.632	-0.00236
2.633	-0.002417
2.634	-0.002293
2.635	-0.002364
2.636	-0.002362
2.637	-0.002389
2.638	-0.002342
2.639	-0.002405
2.64	-0.002409
2.641	-0.002424
2.642	-0.002384
2.643	-0.002417
2.644	-0.002437
2.645	-0.002418
2.646	-0.002408
2.647	-0.002446
2.648	-0.002434
2.649	-0.002442
2.65	-0.002466
2.651	-0.002437
2.652	-0.002486
2.653	-0.002458
2.654	-0.002462
2.655	-0.002483
2.656	-0.002426
2.657	-0.002472
2.658	-0.002406
2.659	-0.002429
2.66	-0.002441
2.661	-0.002509
2.662	-0.002435
2.663	-0.002508
2.664	-0.00249
2.665	-0.002534
2.666	-0.002458
2.667	-0.00247
2.668	-0.002459
2.669	-0.002479
2.67	-0.002494
2.671	-0.002479
2.672	-0.0025
2.673	-0.002475
2.674	-0.002494
2.675	-0.002441
2.676	-0.002501
2.677	-0.002509
2.678	-0.00252
2.679	-0.002509
2.68	-0.002558
2.681	-0.002487
2.682	-0.002501
2.683	-0.002559
2.684	-0.002508
2.685	-0.002548
2.686	-0.002533
2.687	-0.002558
2.688	-0.002564
2.689	-0.002535
2.69	-0.00255
2.691	-0.002533
2.692	-0.002531
2.693	-0.002552
2.694	-0.002544
2.695	-0.002543
2.696	-0.002586
2.697	-0.002564
2.698	-0.002575
2.699	-0.002588
2.7	-0.002555
2.701	-0.002607
2.702	-0.002575
2.703	-0.002598
2.704	-0.002553
2.705	-0.002606
2.706	-0.002579
2.707	-0.002603
2.708	-0.00262
2.709	-0.002567
2.71	-0.002608
2.711	-0.002605
2.712	-0.00264
2.713	-0.002644
2.714	-0.002679
2.715	-0.00268
2.716	-0.00267
2.717	-0.002638
2.718	-0.002662
2.719	-0.002664
2.72	-0.002676
2.721	-0.002669
2.722	-0.002666
2.723	-0.002684
2.724	-0.002667
2.725	-0.002674
2.726	-0.002681
2.727	-0.002716
2.728	-0.002689
2.729	-0.002723
2.73	-0.002745
2.731	-0.002723
2.732	-0.002757
2.733	-0.00272
2.734	-0.002773
2.735	-0.002758
2.736	-0.002797
2.737	-0.002795
2.738	-0.00279
2.739	-0.002778
2.74	-0.002808
2.741	-0.002847
2.742	-0.002771
2.743	-0.00286
2.744	-0.002798
2.745	-0.002879
2.746	-0.002831
2.747	-0.002878
2.748	-0.002862
2.749	-0.002874
2.75	-0.002833
2.751	-0.002895
2.752	-0.002893
2.753	-0.00289
2.754	-0.002892
2.755	-0.002907
2.756	-0.002923
2.757	-0.002919
2.758	-0.002951
2.759	-0.002908
2.76	-0.002946
2.761	-0.002894
2.762	-0.002931
2.763	-0.002903
2.764	-0.002878
2.765	-0.002867
2.766	-0.002866
2.767	-0.002926
2.768	-0.002869
2.769	-0.002883
2.77	-0.002886
2.771	-0.002909
2.772	-0.002869
2.773	-0.002878
2.774	-0.002898
2.775	-0.002893
2.776	-0.002839
2.777	-0.00281
2.778	-0.002761
2.779	-0.002829
2.78	-0.00281
2.781	-0.002825
2.782	-0.002816
2.783	-0.002848
2.784	-0.002754
2.785	-0.002783
2.786	-0.00277
2.787	-0.002757
2.788	-0.002738
2.789	-0.002761
2.79	-0.002693
2.791	-0.002754
2.792	-0.0027
2.793	-0.002696
2.794	-0.002636
2.795	-0.002615
2.796	-0.00261
2.797	-0.002623
2.798	-0.002623
2.799	-0.00256
2.8	-0.002571
2.801	-0.002491
2.802	-0.002543
2.803	-0.002447
2.804	-0.002499
2.805	-0.00243
2.806	-0.002436
2.807	-0.00242
2.808	-0.002443
2.809	-0.002417
2.81	-0.002423
2.811	-0.002379
2.812	-0.002319
2.813	-0.002393
2.814	-0.002329
2.815	-0.002409
2.816	-0.00235
2.817	-0.002357
2.818	-0.002316
2.819	-0.002358
2.82	-0.002339
2.821	-0.002304
2.822	-0.0023
2.823	-0.002288
2.824	-0.002309
2.825	-0.002283
2.826	-0.002314
2.827	-0.002314
2.828	-0.0023
2.829	-0.002336
2.83	-0.002326
2.831	-0.002324
2.832	-0.002332
2.833	-0.002341
2.834	-0.00229
2.835	-0.002314
2.836	-0.002301
2.837	-0.002292
2.838	-0.002318
2.839	-0.002303
2.84	-0.002314
2.841	-0.002362
2.842	-0.002265
2.843	-0.002318
2.844	-0.002322
2.845	-0.00235
2.846	-0.002326
2.847	-0.002304
2.848	-0.002327
2.849	-0.002341
2.85	-0.002347
2.851	-0.002264
2.852	-0.002288
2.853	-0.002297
2.854	-0.002345
2.855	-0.002315
2.856	-0.0023
2.857	-0.002323
2.858	-0.002288
2.859	-0.002316
2.86	-0.002269
2.861	-0.00232
2.862	-0.002292
2.863	-0.002328
2.864	-0.002312
2.865	-0.002304
2.866	-0.002298
2.867	-0.002339
2.868	-0.00231
2.869	-0.002295
2.87	-0.002323
2.871	-0.002337
2.872	-0.002331
2.873	-0.002304
2.874	-0.00232
2.875	-0.002298
2.876	-0.002251
2.877	-0.002311
2.878	-0.00228
2.879	-0.002337
2.88	-0.002276
2.881	-0.002368
2.882	-0.002306
2.883	-0.00233
2.884	-0.002288
2.885	-0.00232
2.886	-0.002267
2.887	-0.002275
2.888	-0.002326
2.889	-0.002323
2.89	-0.002341
2.891	-0.002333
2.892	-0.002323
2.893	-0.002305
2.894	-0.002292
2.895	-0.00232
2.896	-0.002324
2.897	-0.002331
2.898	-0.002312
2.899	-0.002301
2.9	-0.002302
2.901	-0.002291
2.902	-0.002299
2.903	-0.002313
2.904	-0.002312
2.905	-0.002349
2.906	-0.002287
2.907	-0.002308
2.908	-0.002312
2.909	-0.002307
2.91	-0.0023
2.911	-0.002308
2.912	-0.002278
2.913	-0.002343
2.914	-0.002369
2.915	-0.002355
2.916	-0.002321
2.917	-0.002316
2.918	-0.002325
2.919	-0.002301
2.92	-0.002285
2.921	-0.002322
2.922	-0.00226
2.923	-0.002332
2.924	-0.002292
2.925	-0.002315
2.926	-0.002329
2.927	-0.002296
2.928	-0.002271
2.929	-0.002343
2.93	-0.002314
2.931	-0.002346
2.932	-0.002312
2.933	-0.002299
2.934	-0.0023
2.935	-0.002296
2.936	-0.002316
2.937	-0.002321
2.938	-0.002365
2.939	-0.00231
2.94	-0.002326
2.941	-0.002353
2.942	-0.002278
2.943	-0.002337
2.944	-0.002293
2.945	-0.002308
2.946	-0.00228
2.947	-0.002341
2.948	-0.0023
2.949	-0.002331
2.95	-0.002332
2.951	-0.002325
2.952	-0.002278
2.953	-0.002313
2.954	-0.002338
2.955	-0.002353
2.956	-0.002272
2.957	-0.002284
2.958	-0.002252
2.959	-0.00232
2.96	-0.002292
2.961	-0.002288
2.962	-0.00232
2.963	-0.002313
2.964	-0.002336
2.965	-0.002358
2.966	-0.002324
2.967	-0.002353
2.968	-0.0023
2.969	-0.002302
2.97	-0.002267
2.971	-0.002289
2.972	-0.00231
2.973	-0.002329
2.974	-0.002261
2.975	-0.002311
2.976	-0.002312
2.977	-0.00231
2.978	-0.002283
2.979	-0.002329
2.98	-0.002331
2.981	-0.00234
2.982	-0.002329
2.983	-0.002324
2.984	-0.002271
2.985	-0.002284
2.986	-0.002324
2.987	-0.002294
2.988	-0.002308
2.989	-0.0023
2.99	-0.002301
2.991	-0.002336
2.992	-0.002309
2.993	-0.002337
2.994	-0.002256
2.995	-0.002357
2.996	-0.002264
2.997	-0.002343
2.998	-0.002284
2.999	-0.002333
3	-0.0023
3.001	-0.002312
3.002	-0.002323
3.003	-0.002311
3.004	-0.00229
3.005	-0.002296
3.006	-0.002309
3.007	-0.002284
3.008	-0.0023
3.009	-0.002305
3.01	-0.002305
3.011	-0.00235
3.012	-0.002305
3.013	-0.002296
3.014	-0.002308
3.015	-0.002335
3.016	-0.002271
3.017	-0.002268
3.018	-0.002248
3.019	-0.002317
3.02	-0.002309
3.021	-0.002306
3.022	-0.002293
3.023	-0.002338
3.024	-0.002323
3.025	-0.002348
3.026	-0.002324
3.027	-0.002308
3.028	-0.00233
3.029	-0.00232
3.03	-0.002311
3.031	-0.002322
3.032	-0.002333
3.033	-0.002303
3.034	-0.00232
3.035	-0.002303
3.036	-0.002305
3.037	-0.002325
3.038	-0.002332
3.039	-0.002312
3.04	-0.002306
3.041	-0.002317
3.042	-0.002252
3.043	-0.002292
3.044	-0.002287
3.045	-0.002329
3.046	-0.00232
3.047	-0.00235
3.048	-0.002325
3.049	-0.002325
3.05	-0.002341
3.051	-0.002281
3.052	-0.002296
3.053	-0.00231
3.054	-0.002276
3.055	-0.002284
3.056	-0.002322
3.057	-0.002297
3.058	-0.002346
3.059	-0.002345
3.06	-0.002328
3.061	-0.002296
3.062	-0.002318
3.063	-0.002296
3.064	-0.002264
3.065	-0.002292
3.066	-0.002252
3.067	-0.002328
3.068	-0.00228
3.069	-0.002381
3.07	-0.002342
3.071	-0.002293
3.072	-0.002277
3.073	-0.002333
3.074	-0.002324
3.075	-0.002284
3.076	-0.002337
3.077	-0.002373
3.078	-0.002396
3.079	-0.002381
3.08	-0.002417
3.081	-0.002429
3.082	-0.002439
3.083	-0.002465
3.084	-0.002488
3.085	-0.0025
3.086	-0.002465
3.087	-0.002523
3.088	-0.002451
3.089	-0.002539
3.09	-0.002543
3.091	-0.002526
3.092	-0.002495
3.093	-0.002563
3.094	-0.002579
3.095	-0.002625
3.096	-0.002635
3.097	-0.002618
3.098	-0.002653
3.099	-0.002628
3.1	-0.002612
3.101	-0.002599
3.102	-0.002656
3.103	-0.00266
3.104	-0.00268
3.105	-0.002639
3.106	-0.00269
3.107	-0.00267
3.108	-0.002698
3.109	-0.002635
3.11	-0.002661
3.111	-0.002678
3.112	-0.002645
3.113	-0.002652
3.114	-0.002666
3.115	-0.002694
3.116	-0.002642
3.117	-0.002631
3.118	-0.002684
3.119	-0.002672
3.12	-0.002678
3.121	-0.002673
3.122	-0.002696
3.123	-0.002639
3.124	-0.002623
3.125	-0.002569
3.126	-0.002608
3.127	-0.002595
3.128	-0.002633
3.129	-0.002602
3.13	-0.002604
3.131	-0.002595
3.132	-0.002583
3.133	-0.002606
3.134	-0.002539
3.135	-0.002529
3.136	-0.00252
3.137	-0.002515
3.138	-0.002489
3.139	-0.002526
3.14	-0.002463
3.141	-0.002482
3.142	-0.002434
3.143	-0.002447
3.144	-0.002449
3.145	-0.002413
3.146	-0.00243
3.147	-0.002393
3.148	-0.002417
3.149	-0.002327
3.15	-0.002348
3.151	-0.002282
3.152	-0.002339
3.153	-0.002297
3.154	-0.002273
3.155	-0.002329
3.156	-0.002326
3.157	-0.00233
3.158	-0.002333
3.159	-0.002292
3.16	-0.002296
3.161	-0.002333
3.162	-0.002256
3.163	-0.002296
3.164	-0.002278
3.165	-0.002294
3.166	-0.002284
3.167	-0.002345
3.168	-0.002324
3.169	-0.002305
3.17	-0.002286
3.171	-0.002281
3.172	-0.002322
3.173	-0.002334
3.174	-0.002309
3.175	-0.002293
3.176	-0.002312
3.177	-0.002314
3.178	-0.00233
3.179	-0.002316
3.18	-0.002329
3.181	-0.002341
3.182	-0.002312
3.183	-0.002317
3.184	-0.002313
3.185	-0.002338
3.186	-0.002282
3.187	-0.002299
3.188	-0.002275
3.189	-0.002296
3.19	-0.002304
3.191	-0.002318
3.192	-0.002288
3.193	-0.002329
3.194	-0.002294
3.195	-0.002302
3.196	-0.002312
3.197	-0.002329
3.198	-0.002333
3.199	-0.002276
3.2	-0.002285
3.201	-0.002326
3.202	-0.002272
3.203	-0.002308
3.204	-0.002329
3.205	-0.00231
3.206	-0.002324
3.207	-0.002308
3.208	-0.002301
3.209	-0.002323
3.21	-0.002302
3.211	-0.002271
3.212	-0.002308
3.213	-0.0023
3.214	-0.002274
3.215	-0.002326
3.216	-0.002311
3.217	-0.002278
3.218	-0.002348
3.219	-0.002333
3.22	-0.002334
3.221	-0.002329
3.222	-0.002277
3.223	-0.00232
3.224	-0.002282
3.225	-0.002289
3.226	-0.00232
3.227	-0.00233
3.228	-0.00229
3.229	-0.0023
3.23	-0.00231
3.231	-0.002345
3.232	-0.00228
3.233	-0.002288
3.234	-0.002297
3.235	-0.002207
3.236	-0.002222
3.237	-0.002175
3.238	-0.00222
3.239	-0.002138
3.24	-0.002086
3.241	-0.002095
3.242	-0.002105
3.243	-0.002057
3.244	-0.002011
3.245	-0.002022
3.246	-0.002019
3.247	-0.001929
3.248	-0.001939
3.249	-0.00207
3.25	-0.002094
3.251	-0.002316
3.252	-0.002414
3.253	-0.002648
3.254	-0.002688
3.255	-0.002919
3.256	-0.00304
3.257	-0.003266
3.258	-0.003328
3.259	-0.003503
3.26	-0.003617
3.261	-0.003827
3.262	-0.003904
3.263	-0.004107
3.264	-0.004275
3.265	-0.004485
3.266	-0.004558
3.267	-0.004748
3.268	-0.004878
3.269	-0.00509
3.27	-0.005207
3.271	-0.005371
3.272	-0.005424
3.273	-0.005396
3.274	-0.005304
3.275	-0.005162
3.276	-0.005029
3.277	-0.004925
3.278	-0.004812
3.279	-0.004612
3.28	-0.004509
3.281	-0.004283
3.282	-0.004186
3.283	-0.003984
3.284	-0.003907
3.285	-0.003694
3.286	-0.003561
3.287	-0.003322
3.288	-0.003225
3.289	-0.003082
3.29	-0.002958
3.291	-0.002776
3.292	-0.002635
3.293	-0.002461
3.294	-0.002373
3.295	-0.002187
3.296	-0.002066
3.297	-0.002022
3.298	-0.002018
3.299	-0.002013
3.3	-0.001986
3.301	-0.002019
3.302	-0.002044
3.303	-0.002099
3.304	-0.002118
3.305	-0.002143
3.306	-0.002153
3.307	-0.002168
3.308	-0.002174
3.309	-0.002171
3.31	-0.002263
3.311	-0.002273
3.312	-0.002286
3.313	-0.002298
3.314	-0.002312
3.315	-0.002304
3.316	-0.002295
3.317	-0.002305
3.318	-0.002301
3.319	-0.002301
3.32	-0.00229
3.321	-0.002284
3.322	-0.002301
3.323	-0.002313
3.324	-0.002297
3.325	-0.002309
3.326	-0.002293
3.327	-0.002301
3.328	-0.00228
3.329	-0.002352
3.33	-0.002304
3.331	-0.002313
3.332	-0.002303
3.333	-0.002329
3.334	-0.002334
3.335	-0.002296
3.336	-0.002322
3.337	-0.002306
3.338	-0.002296
3.339	-0.002316
3.34	-0.002305
3.341	-0.002335
3.342	-0.002275
3.343	-0.002316
3.344	-0.002304
3.345	-0.002282
3.346	-0.002327
3.347	-0.002324
3.348	-0.002293
3.349	-0.002324
3.35	-0.002296
3.351	-0.002336
3.352	-0.002323
3.353	-0.002333
3.354	-0.002299
3.355	-0.002294
3.356	-0.002296
3.357	-0.002345
3.358	-0.002357
3.359	-0.002356
3.36	-0.002333
3.361	-0.002295
3.362	-0.002352
3.363	-0.002313
3.364	-0.002362
3.365	-0.002362
3.366	-0.002335
3.367	-0.002388
3.368	-0.002332
3.369	-0.002331
3.37	-0.002356
3.371	-0.002394
3.372	-0.002339
3.373	-0.002386
3.374	-0.002358
3.375	-0.002413
3.376	-0.002372
3.377	-0.002366
3.378	-0.002361
3.379	-0.002369
3.38	-0.002337
3.381	-0.002346
3.382	-0.002372
3.383	-0.002377
3.384	-0.002393
3.385	-0.002343
3.386	-0.002383
3.387	-0.002382
3.388	-0.002425
3.389	-0.002409
3.39	-0.002403
3.391	-0.002428
3.392	-0.002403
3.393	-0.002374
3.394	-0.002374
3.395	-0.002439
3.396	-0.002377
3.397	-0.002444
3.398	-0.002412
3.399	-0.002486
3.4	-0.002436
3.401	-0.002455
3.402	-0.002461
3.403	-0.002483
3.404	-0.002462
3.405	-0.00245
3.406	-0.002435
3.407	-0.002466
3.408	-0.002458
3.409	-0.002425
3.41	-0.00247
3.411	-0.002467
3.412	-0.002463
3.413	-0.002528
3.414	-0.002482
3.415	-0.002496
3.416	-0.002451
3.417	-0.00248
3.418	-0.002473
3.419	-0.002485
3.42	-0.002462
3.421	-0.002442
3.422	-0.002488
3.423	-0.002502
3.424	-0.002507
3.425	-0.002518
3.426	-0.002486
3.427	-0.002481
3.428	-0.00248
3.429	-0.002508
3.43	-0.002476
3.431	-0.00249
3.432	-0.002537
3.433	-0.002477
3.434	-0.002553
3.435	-0.002507
3.436	-0.002571
3.437	-0.002511
3.438	-0.002548
3.439	-0.002579
3.44	-0.00255
3.441	-0.00257
3.442	-0.002532
3.443	-0.002566
3.444	-0.002579
3.445	-0.002561
3.446	-0.002519
3.447	-0.002584
3.448	-0.002583
3.449	-0.002563
3.45	-0.002587
3.451	-0.002563
3.452	-0.002595
3.453	-0.002603
3.454	-0.00255
3.455	-0.002545
3.456	-0.002591
3.457	-0.002613
3.458	-0.002564
3.459	-0.002602
3.46	-0.002627
3.461	-0.002652
3.462	-0.002632
3.463	-0.002593
3.464	-0.002637
3.465	-0.002664
3.466	-0.002656
3.467	-0.002652
3.468	-0.002611
3.469	-0.002683
3.47	-0.002635
3.471	-0.002635
3.472	-0.002653
3.473	-0.002707
3.474	-0.002691
3.475	-0.002722
3.476	-0.002706
3.477	-0.002708
3.478	-0.002702
3.479	-0.002714
3.48	-0.002733
3.481	-0.002742
3.482	-0.002745
3.483	-0.002711
3.484	-0.002783
3.485	-0.002758
3.486	-0.002785
3.487	-0.002793
3.488	-0.002785
3.489	-0.002828
3.49	-0.002812
3.491	-0.002863
3.492	-0.002788
3.493	-0.00284
3.494	-0.002792
3.495	-0.00287
3.496	-0.002801
3.497	-0.00287
3.498	-0.002823
3.499	-0.002922
3.5	-0.002808
3.501	-0.002938
3.502	-0.002883
3.503	-0.002894
3.504	-0.002912
3.505	-0.002867
3.506	-0.002922
3.507	-0.002882
3.508	-0.002917
3.509	-0.002901
3.51	-0.002906
3.511	-0.002941
3.512	-0.002902
3.513	-0.002876
3.514	-0.00292
3.515	-0.002891
3.516	-0.002882
3.517	-0.002887
3.518	-0.002902
3.519	-0.002865
3.52	-0.002836
3.521	-0.002906
3.522	-0.00289
3.523	-0.002887
3.524	-0.002887
3.525	-0.002874
3.526	-0.002861
3.527	-0.002836
3.528	-0.002821
3.529	-0.002858
3.53	-0.0028
3.531	-0.002797
3.532	-0.002769
3.533	-0.002759
3.534	-0.00278
3.535	-0.002755
3.536	-0.00279
3.537	-0.002726
3.538	-0.002797
3.539	-0.00277
3.54	-0.002715
3.541	-0.002746
3.542	-0.002657
3.543	-0.002687
3.544	-0.002639
3.545	-0.002643
3.546	-0.002624
3.547	-0.002623
3.548	-0.002619
3.549	-0.002551
3.55	-0.002602
3.551	-0.002526
3.552	-0.002496
3.553	-0.002467
3.554	-0.002466
3.555	-0.00243
3.556	-0.002438
3.557	-0.002422
3.558	-0.002398
3.559	-0.002405
3.56	-0.002424
3.561	-0.002405
3.562	-0.002374
3.563	-0.002377
3.564	-0.002357
3.565	-0.002381
3.566	-0.002317
3.567	-0.002329
3.568	-0.002322
3.569	-0.002315
3.57	-0.002327
3.571	-0.002312
3.572	-0.002308
3.573	-0.002328
3.574	-0.002337
3.575	-0.002319
3.576	-0.002309
3.577	-0.002277
3.578	-0.002303
3.579	-0.002276
3.58	-0.002321
3.581	-0.002288
3.582	-0.002338
3.583	-0.002308
3.584	-0.0023
3.585	-0.002307
3.586	-0.0023
3.587	-0.002361
3.588	-0.002306
3.589	-0.002312
3.59	-0.002299
3.591	-0.002294
3.592	-0.002284
3.593	-0.00233
3.594	-0.00228
3.595	-0.002349
3.596	-0.002273
3.597	-0.002314
3.598	-0.002323
3.599	-0.002297
3.6	-0.002262
3.601	-0.002284
3.602	-0.002329
3.603	-0.002288
3.604	-0.002266
3.605	-0.002303
3.606	-0.002326
3.607	-0.002284
3.608	-0.002312
3.609	-0.002339
3.61	-0.002303
3.611	-0.002336
3.612	-0.002308
3.613	-0.00231
3.614	-0.002299
3.615	-0.002324
3.616	-0.002276
3.617	-0.002336
3.618	-0.002291
3.619	-0.002318
3.62	-0.002308
3.621	-0.00231
3.622	-0.002306
3.623	-0.002326
3.624	-0.002259
3.625	-0.002312
3.626	-0.00227
3.627	-0.002313
3.628	-0.002299
3.629	-0.002334
3.63	-0.002333
3.631	-0.002331
3.632	-0.002333
3.633	-0.002282
3.634	-0.00232
3.635	-0.002318
3.636	-0.00232
3.637	-0.0023
3.638	-0.00233
3.639	-0.002337
3.64	-0.002267
3.641	-0.002355
3.642	-0.002314
3.643	-0.002336
3.644	-0.0023
3.645	-0.002328
3.646	-0.002299
3.647	-0.002305
3.648	-0.002269
3.649	-0.002335
3.65	-0.002292
3.651	-0.002334
3.652	-0.002311
3.653	-0.00227
3.654	-0.002298
3.655	-0.002328
3.656	-0.00233
3.657	-0.002264
3.658	-0.002276
3.659	-0.00229
3.66	-0.002293
3.661	-0.002299
3.662	-0.00228
3.663	-0.002345
3.664	-0.002284
3.665	-0.002341
3.666	-0.002361
3.667	-0.002267
3.668	-0.002287
3.669	-0.002311
3.67	-0.0023
3.671	-0.002292
3.672	-0.002318
3.673	-0.002301
3.674	-0.002288
3.675	-0.002249
3.676	-0.002307
3.677	-0.002282
3.678	-0.002318
3.679	-0.002332
3.68	-0.0023
3.681	-0.002315
3.682	-0.0023
3.683	-0.002327
3.684	-0.002303
3.685	-0.002341
3.686	-0.002299
3.687	-0.002318
3.688	-0.00227
3.689	-0.002324
3.69	-0.002287
3.691	-0.0023
3.692	-0.002275
3.693	-0.002304
3.694	-0.002337
3.695	-0.002308
3.696	-0.002284
3.697	-0.002306
3.698	-0.002294
3.699	-0.002267
3.7	-0.002284
3.701	-0.002288
3.702	-0.002311
3.703	-0.002302
3.704	-0.002329
3.705	-0.002372
3.706	-0.002338
3.707	-0.002312
3.708	-0.002285
3.709	-0.00236
3.71	-0.002276
3.711	-0.002315
3.712	-0.002296
3.713	-0.002354
3.714	-0.002304
3.715	-0.002349
3.716	-0.002288
3.717	-0.002335
3.718	-0.002312
3.719	-0.002308
3.72	-0.0023
3.721	-0.002291
3.722	-0.002301
3.723	-0.002329
3.724	-0.002284
3.725	-0.0023
3.726	-0.002323
3.727	-0.002295
3.728	-0.00233
3.729	-0.002365
3.73	-0.002312
3.731	-0.002336
3.732	-0.002322
3.733	-0.0023
3.734	-0.0023
3.735	-0.002297
3.736	-0.002295
3.737	-0.002282
3.738	-0.002303
3.739	-0.002316
3.74	-0.002289
3.741	-0.002333
3.742	-0.002334
3.743	-0.002317
3.744	-0.002334
3.745	-0.002301
3.746	-0.002262
3.747	-0.002296
3.748	-0.002326
3.749	-0.002309
3.75	-0.002296
3.751	-0.002289
3.752	-0.002324
3.753	-0.002321
3.754	-0.002319
3.755	-0.00231
3.756	-0.002327
3.757	-0.002324
3.758	-0.002308
3.759	-0.00232
3.76	-0.002263
3.761	-0.002305
3.762	-0.002292
3.763	-0.002297
3.764	-0.002304
3.765	-0.002348
3.766	-0.002323
3.767	-0.002276
3.768	-0.00232
3.769	-0.002307
3.77	-0.00234
3.771	-0.002277
3.772	-0.002305
3.773	-0.002296
3.774	-0.002327
3.775	-0.002329
3.776	-0.002294
3.777	-0.00235
3.778	-0.002308
3.779	-0.002308
3.78	-0.002302
3.781	-0.002318
3.782	-0.002293
3.783	-0.0023
3.784	-0.002287
3.785	-0.002317
3.786	-0.002355
3.787	-0.002305
3.788	-0.00228
3.789	-0.002293
3.79	-0.00228
3.791	-0.002294
3.792	-0.002329
3.793	-0.002281
3.794	-0.002336
3.795	-0.002299
3.796	-0.002284
3.797	-0.002289
3.798	-0.002325
3.799	-0.002261
3.8	-0.002305
3.801	-0.002316
3.802	-0.002319
3.803	-0.002313
3.804	-0.002245
3.805	-0.002333
3.806	-0.00229
3.807	-0.002312
3.808	-0.002242
3.809	-0.002307
3.81	-0.002312
3.811	-0.002344
3.812	-0.002317
3.813	-0.002375
3.814	-0.002313
3.815	-0.002365
3.816	-0.002345
3.817	-0.00231
3.818	-0.002319
3.819	-0.002316
3.82	-0.002321
3.821	-0.002314
3.822	-0.002316
3.823	-0.002328
3.824	-0.002349
3.825	-0.002316
3.826	-0.00239
3.827	-0.002386
3.828	-0.002423
3.829	-0.002443
3.83	-0.002389
3.831	-0.002489
3.832	-0.002409
3.833	-0.002438
3.834	-0.002434
3.835	-0.002514
3.836	-0.002482
3.837	-0.002489
3.838	-0.002502
3.839	-0.002567
3.84	-0.002564
3.841	-0.002583
3.842	-0.002518
3.843	-0.002603
3.844	-0.002588
3.845	-0.002568
3.846	-0.002566
3.847	-0.002594
3.848	-0.002643
3.849	-0.002583
3.85	-0.002593
3.851	-0.002655
3.852	-0.002655
3.853	-0.002658
3.854	-0.002686
3.855	-0.002691
3.856	-0.002631
3.857	-0.002672
3.858	-0.002629
3.859	-0.002671
3.86	-0.002645
3.861	-0.002673
3.862	-0.00268
3.863	-0.002658
3.864	-0.002675
3.865	-0.002677
3.866	-0.002678
3.867	-0.002652
3.868	-0.002672
3.869	-0.002624
3.87	-0.002669
3.871	-0.00264
3.872	-0.002684
3.873	-0.002655
3.874	-0.002631
3.875	-0.002619
3.876	-0.002606
3.877	-0.002624
3.878	-0.002543
3.879	-0.002642
3.88	-0.002606
3.881	-0.002592
3.882	-0.002555
3.883	-0.002564
3.884	-0.002552
3.885	-0.002523
3.886	-0.002515
3.887	-0.002527
3.888	-0.002549
3.889	-0.002518
3.89	-0.002466
3.891	-0.002425
3.892	-0.00252
3.893	-0.002422
3.894	-0.002434
3.895	-0.002378
3.896	-0.00241
3.897	-0.00239
3.898	-0.002424
3.899	-0.002365
3.9	-0.002345
3.901	-0.002334
3.902	-0.002329
3.903	-0.002312
3.904	-0.00224
3.905	-0.002293
3.906	-0.00227
3.907	-0.002308
3.908	-0.002256
3.909	-0.002369
3.91	-0.002283
3.911	-0.00231
3.912	-0.002333
3.913	-0.002349
3.914	-0.002341
3.915	-0.002323
3.916	-0.002304
3.917	-0.00228
3.918	-0.002286
3.919	-0.002339
3.92	-0.002325
3.921	-0.002337
3.922	-0.002313
3.923	-0.002307
3.924	-0.002308
3.925	-0.002322
3.926	-0.002276
3.927	-0.002324
3.928	-0.002324
3.929	-0.002298
3.93	-0.002292
3.931	-0.002351
3.932	-0.002296
3.933	-0.002319
3.934	-0.002331
3.935	-0.002334
3.936	-0.002357
3.937	-0.002316
3.938	-0.002276
3.939	-0.002288
3.94	-0.002308
3.941	-0.00229
3.942	-0.002287
3.943	-0.002266
3.944	-0.002316
3.945	-0.002329
3.946	-0.002284
3.947	-0.00234
3.948	-0.002312
3.949	-0.002333
3.95	-0.002336
3.951	-0.002316
3.952	-0.002316
3.953	-0.002307
3.954	-0.002281
3.955	-0.002287
3.956	-0.002341
3.957	-0.002347
3.958	-0.002341
3.959	-0.002342
3.96	-0.002316
3.961	-0.002341
3.962	-0.002297
3.963	-0.00228
3.964	-0.002295
3.965	-0.002299
3.966	-0.002256
3.967	-0.002287
3.968	-0.002305
3.969	-0.002362
3.97	-0.002319
3.971	-0.002334
3.972	-0.002308
3.973	-0.002337
3.974	-0.002324
3.975	-0.00232
3.976	-0.002264
3.977	-0.002319
3.978	-0.002312
3.979	-0.002282
3.98	-0.002347
3.981	-0.002345
3.982	-0.002316
3.983	-0.002272
3.984	-0.002248
3.985	-0.002272
3.986	-0.002211
3.987	-0.002143
3.988	-0.002121
3.989	-0.002136
3.99	-0.002118
3.991	-0.0021
3.992	-0.002053
3.993	-0.00207
3.994	-0.002008
3.995	-0.002001
3.996	-0.00193
3.997	-0.001913
3.998	-0.001915
3.999	-0.002042
4	-0.002102
4.001	-0.002312
4.002	-0.002412
4.003	-0.002563
4.004	-0.002701
4.005	-0.002917
4.006	-0.003041
4.007	-0.003241
4.008	-0.003318
4.009	-0.00352
4.01	-0.003625
4.011	-0.003826
4.012	-0.003876
4.013	-0.004138
4.014	-0.004234
4.015	-0.004483
4.016	-0.004575
4.017	-0.004758
4.018	-0.004889
4.019	-0.005107
4.02	-0.005145
4.021	-0.005377
4.022	-0.005467
4.023	-0.005407
4.024	-0.005332
4.025	-0.005095
4.026	-0.005055
4.027	-0.004902
4.028	-0.004805
4.029	-0.004606
4.03	-0.004489
4.031	-0.004287
4.032	-0.00419
4.033	-0.00402
4.034	-0.003864
4.035	-0.003701
4.036	-0.003571
4.037	-0.003394
4.038	-0.003231
4.039	-0.003076
4.04	-0.002973
4.041	-0.002744
4.042	-0.002655
4.043	-0.002484
4.044	-0.002369
4.045	-0.002143
4.046	-0.002112
4.047	-0.002005
4.048	-0.002018
4.049	-0.002021
4.05	-0.001976
4.051	-0.002054
4.052	-0.002045
4.053	-0.002071
4.054	-0.002118
4.055	-0.002146
4.056	-0.002138
4.057	-0.002142
4.058	-0.002158
4.059	-0.00224
4.06	-0.002207
4.061	-0.002328
4.062	-0.002286
4.063	-0.002331
4.064	-0.0023
4.065	-0.002336
4.066	-0.002248
4.067	-0.002356
4.068	-0.002316
4.069	-0.002308
4.07	-0.002338
4.071	-0.002337
4.072	-0.002295
4.073	-0.002297
4.074	-0.002339
4.075	-0.002365
4.076	-0.002334
4.077	-0.002323
4.078	-0.002296
4.079	-0.002319
4.08	-0.002311
4.081	-0.00235
4.082	-0.002253
4.083	-0.002307
4.084	-0.002295
4.085	-0.002342
4.086	-0.002303
4.087	-0.002316
4.088	-0.0023
4.089	-0.002347
4.09	-0.002306
4.091	-0.0023
4.092	-0.002326
4.093	-0.002324
4.094	-0.002287
4.095	-0.002324
4.096	-0.002292
4.097	-0.002297
4.098	-0.002325
4.099	-0.002321
4.1	-0.002381
4.101	-0.00231
4.102	-0.002337
4.103	-0.002314
4.104	-0.002312
4.105	-0.002324
4.106	-0.002308
4.107	-0.002295
4.108	-0.002289
4.109	-0.002327
4.11	-0.002331
4.111	-0.002341
4.112	-0.002361
4.113	-0.002322
4.114	-0.002342
4.115	-0.002377
4.116	-0.002345
4.117	-0.002289
4.118	-0.002332
4.119	-0.002352
4.12	-0.002359
4.121	-0.00238
4.122	-0.002378
4.123	-0.002367
4.124	-0.00241
4.125	-0.002351
4.126	-0.00232
4.127	-0.002393
4.128	-0.002355
4.129	-0.002358
4.13	-0.002317
4.131	-0.002361
4.132	-0.002376
4.133	-0.002444
4.134	-0.00235
4.135	-0.002429
4.136	-0.002429
4.137	-0.002382
4.138	-0.002377
4.139	-0.002398
4.14	-0.002438
4.141	-0.002413
4.142	-0.002374
4.143	-0.002405
4.144	-0.002425
4.145	-0.002424
4.146	-0.002442
4.147	-0.002419
4.148	-0.002454
4.149	-0.002486
4.15	-0.002395
4.151	-0.002454
4.152	-0.002463
4.153	-0.002463
4.154	-0.002396
4.155	-0.002482
4.156	-0.002408
4.157	-0.002473
4.158	-0.002498
4.159	-0.002482
4.16	-0.002491
4.161	-0.002508
4.162	-0.002434
4.163	-0.002464
4.164	-0.002479
4.165	-0.00249
4.166	-0.002478
4.167	-0.002469
4.168	-0.00251
4.169	-0.002475
4.17	-0.002482
4.171	-0.002524
4.172	-0.002489
4.173	-0.002518
4.174	-0.00249
4.175	-0.002545
4.176	-0.002485
4.177	-0.00252
4.178	-0.002474
4.179	-0.002506
4.18	-0.00247
4.181	-0.002515
4.182	-0.002516
4.183	-0.002524
4.184	-0.00253
4.185	-0.002556
4.186	-0.002583
4.187	-0.002517
4.188	-0.002508
4.189	-0.002493
4.19	-0.002543
4.191	-0.002482
4.192	-0.002534
4.193	-0.002587
4.194	-0.00259
4.195	-0.002534
4.196	-0.002551
4.197	-0.002599
4.198	-0.002586
4.199	-0.002567
4.2	-0.002544
4.201	-0.002586
4.202	-0.002568
4.203	-0.002583
4.204	-0.002603
4.205	-0.002643
4.206	-0.002598
4.207	-0.002582
4.208	-0.002571
4.209	-0.002604
4.21	-0.002626
4.211	-0.00263
4.212	-0.002659
4.213	-0.00264
4.214	-0.002651
4.215	-0.002636
4.216	-0.002645
4.217	-0.002621
4.218	-0.00267
4.219	-0.002668
4.22	-0.002707
4.221	-0.002716
4.222	-0.002664
4.223	-0.00267
4.224	-0.002664
4.225	-0.002672
4.226	-0.002696
4.227	-0.002723
4.228	-0.002684
4.229	-0.002748
4.23	-0.002724
4.231	-0.002736
4.232	-0.002706
4.233	-0.00273
4.234	-0.002764
4.235	-0.002756
4.236	-0.002744
4.237	-0.002801
4.238	-0.002784
4.239	-0.002801
4.24	-0.002825
4.241	-0.002865
4.242	-0.002839
4.243	-0.002832
4.244	-0.002828
4.245	-0.002902
4.246	-0.002872
4.247	-0.002874
4.248	-0.002841
4.249	-0.002896
4.25	-0.002897
4.251	-0.002927
4.252	-0.00287
4.253	-0.0029
4.254	-0.002926
4.255	-0.002915
4.256	-0.002906
4.257	-0.00288
4.258	-0.002943
4.259	-0.002897
4.26	-0.002935
4.261	-0.002908
4.262	-0.002889
4.263	-0.002905
4.264	-0.002908
4.265	-0.00288
4.266	-0.002919
4.267	-0.002899
4.268	-0.002847
4.269	-0.002915
4.27	-0.002855
4.271	-0.00285
4.272	-0.002856
4.273	-0.002882
4.274	-0.002837
4.275	-0.002902
4.276	-0.002833
4.277	-0.002858
4.278	-0.002841
4.279	-0.002824
4.28	-0.002825
4.281	-0.002798
4.282	-0.002789
4.283	-0.002816
4.284	-0.002817
4.285	-0.002775
4.286	-0.002825
4.287	-0.002741
4.288	-0.002787
4.289	-0.002714
4.29	-0.002764
4.291	-0.002692
4.292	-0.002711
4.293	-0.00269
4.294	-0.002668
4.295	-0.002651
4.296	-0.002625
4.297	-0.002635
4.298	-0.002599
4.299	-0.00256
4.3	-0.002555
4.301	-0.002527
4.302	-0.002537
4.303	-0.002505
4.304	-0.002464
4.305	-0.002446
4.306	-0.002447
4.307	-0.002402
4.308	-0.002403
4.309	-0.002405
4.31	-0.002388
4.311	-0.002409
4.312	-0.002362
4.313	-0.002399
4.314	-0.002357
4.315	-0.002413
4.316	-0.002331
4.317	-0.002327
4.318	-0.002377
4.319	-0.002316
4.32	-0.002329
4.321	-0.002302
4.322	-0.002311
4.323	-0.002312
4.324	-0.002329
4.325	-0.002287
4.326	-0.002312
4.327	-0.002328
4.328	-0.002295
4.329	-0.002288
4.33	-0.002267
4.331	-0.002319
4.332	-0.002301
4.333	-0.002328
4.334	-0.002274
4.335	-0.002323
4.336	-0.002318
4.337	-0.002289
4.338	-0.002284
4.339	-0.002316
4.34	-0.002342
4.341	-0.002337
4.342	-0.002346
4.343	-0.002342
4.344	-0.002319
4.345	-0.002293
4.346	-0.002308
4.347	-0.002318
4.348	-0.002344
4.349	-0.002331
4.35	-0.002303
4.351	-0.002336
4.352	-0.002357
4.353	-0.002325
4.354	-0.002353
4.355	-0.002331
4.356	-0.002282
4.357	-0.002293
4.358	-0.002308
4.359	-0.002328
4.36	-0.00234
4.361	-0.002345
4.362	-0.002299
4.363	-0.002347
4.364	-0.002326
4.365	-0.002304
4.366	-0.00233
4.367	-0.002288
4.368	-0.002305
4.369	-0.002288
4.37	-0.002307
4.371	-0.002296
4.372	-0.0023
4.373	-0.002292
4.374	-0.002299
4.375	-0.002307
4.376	-0.002285
4.377	-0.002332
4.378	-0.002285
4.379	-0.002337
4.38	-0.002274
4.381	-0.002338
4.382	-0.002279
4.383	-0.002304
4.384	-0.00232
4.385	-0.002349
4.386	-0.00233
4.387	-0.002323
4.388	-0.002328
4.389	-0.002271
4.39	-0.002354
4.391	-0.002285
4.392	-0.002308
4.393	-0.002294
4.394	-0.002341
4.395	-0.002331
4.396	-0.002361
4.397	-0.002329
4.398	-0.002304
4.399	-0.00232
4.4	-0.002321
4.401	-0.00235
4.402	-0.002287
4.403	-0.002323
4.404	-0.002326
4.405	-0.002347
4.406	-0.002282
4.407	-0.002325
4.408	-0.0023
4.409	-0.002311
4.41	-0.002306
4.411	-0.00233
4.412	-0.0023
4.413	-0.002304
4.414	-0.002312
4.415	-0.002285
4.416	-0.002328
4.417	-0.002289
4.418	-0.002338
4.419	-0.002319
4.42	-0.002377
4.421	-0.00231
4.422	-0.002296
4.423	-0.002322
4.424	-0.002256
4.425	-0.002357
4.426	-0.002282
4.427	-0.002308
4.428	-0.00229
4.429	-0.002365
4.43	-0.002316
4.431	-0.002319
4.432	-0.002291
4.433	-0.002354
4.434	-0.002308
4.435	-0.00231
4.436	-0.002313
4.437	-0.002272
4.438	-0.002318
4.439	-0.002275
4.44	-0.002312
4.441	-0.002276
4.442	-0.00236
4.443	-0.002341
4.444	-0.002329
4.445	-0.002326
4.446	-0.002317
4.447	-0.002312
4.448	-0.002287
4.449	-0.002276
4.45	-0.002292
4.451	-0.002337
4.452	-0.002278
4.453	-0.00232
4.454	-0.002312
4.455	-0.002325
4.456	-0.002347
4.457	-0.002289
4.458	-0.002403
4.459	-0.002333
4.46	-0.002303
4.461	-0.002296
4.462	-0.002276
4.463	-0.002268
4.464	-0.002297
4.465	-0.00233
4.466	-0.002308
4.467	-0.002301
4.468	-0.002333
4.469	-0.002291
4.47	-0.002329
4.471	-0.00233
4.472	-0.002284
4.473	-0.002312
4.474	-0.002275
4.475	-0.002277
4.476	-0.002282
4.477	-0.002313
4.478	-0.00231
4.479	-0.002307
4.48	-0.002308
4.481	-0.002329
4.482	-0.00228
4.483	-0.002291
4.484	-0.00232
4.485	-0.002308
4.486	-0.002333
4.487	-0.002273
4.488	-0.002319
4.489	-0.002313
4.49	-0.002313
4.491	-0.002371
4.492	-0.002307
4.493	-0.002364
4.494	-0.002317
4.495	-0.00232
4.496	-0.002269
4.497	-0.002301
4.498	-0.002325
4.499	-0.002316
4.5	-0.00227
4.501	-0.002318
4.502	-0.002316
4.503	-0.002347
4.504	-0.002342
4.505	-0.002311
4.506	-0.002298
4.507	-0.002304
4.508	-0.002267
4.509	-0.002281
4.51	-0.002324
4.511	-0.00231
4.512	-0.002324
4.513	-0.002299
4.514	-0.002341
4.515	-0.002285
4.516	-0.002342
4.517	-0.002335
4.518	-0.002325
4.519	-0.002323
4.52	-0.002294
4.521	-0.002335
4.522	-0.002251
4.523	-0.002333
4.524	-0.002259
4.525	-0.002337
4.526	-0.002288
4.527	-0.002296
4.528	-0.002291
4.529	-0.002359
4.53	-0.002341
4.531	-0.002305
4.532	-0.002315
4.533	-0.002274
4.534	-0.002319
4.535	-0.002264
4.536	-0.00229
4.537	-0.00233
4.538	-0.002297
4.539	-0.002308
4.54	-0.002295
4.541	-0.002313
4.542	-0.002317
4.543	-0.002325
4.544	-0.002273
4.545	-0.002323
4.546	-0.002309
4.547	-0.00231
4.548	-0.002315
4.549	-0.002278
4.55	-0.002312
4.551	-0.002316
4.552	-0.00231
4.553	-0.002292
4.554	-0.002361
4.555	-0.002291
4.556	-0.002325
4.557	-0.002324
4.558	-0.002332
4.559	-0.002329
4.56	-0.002304
4.561	-0.002337
4.562	-0.00232
4.563	-0.002363
4.564	-0.002348
4.565	-0.002332
4.566	-0.002286
4.567	-0.002307
4.568	-0.002318
4.569	-0.002351
4.57	-0.002288
4.571	-0.002294
4.572	-0.002304
4.573	-0.002315
4.574	-0.002305
4.575	-0.00236
4.576	-0.002342
4.577	-0.002388
4.578	-0.00239
4.579	-0.00237
4.58	-0.002442
4.581	-0.002404
4.582	-0.002441
4.583	-0.002518
4.584	-0.002441
4.585	-0.002517
4.586	-0.002494
4.587	-0.002537
4.588	-0.002538
4.589	-0.00258
4.59	-0.002558
4.591	-0.002583
4.592	-0.002576
4.593	-0.002578
4.594	-0.002566
4.595	-0.002607
4.596	-0.002549
4.597	-0.002613
4.598	-0.002611
4.599	-0.002593
4.6	-0.002663
4.601	-0.002677
4.602	-0.00265
4.603	-0.002675
4.604	-0.002644
4.605	-0.002669
4.606	-0.002629
4.607	-0.002668
4.608	-0.002658
4.609	-0.002664
4.61	-0.00267
4.611	-0.002684
4.612	-0.002639
4.613	-0.002712
4.614	-0.00266
4.615	-0.002688
4.616	-0.002675
4.617	-0.00267
4.618	-0.002649
4.619	-0.002662
4.62	-0.002664
4.621	-0.002635
4.622	-0.00265
4.623	-0.002685
4.624	-0.002668
4.625	-0.002664
4.626	-0.002645
4.627	-0.002623
4.628	-0.002567
4.629	-0.002603
4.63	-0.002584
4.631	-0.002579
4.632	-0.002553
4.633	-0.002583
4.634	-0.002547
4.635	-0.002577
4.636	-0.002553
4.637	-0.002533
4.638	-0.002502
4.639	-0.002486
4.64	-0.002511
4.641	-0.002459
4.642	-0.002474
4.643	-0.002407
4.644	-0.002419
4.645	-0.002401
4.646	-0.002416
4.647	-0.002365
4.648	-0.002422
4.649	-0.002369
4.65	-0.002318
4.651	-0.002344
4.652	-0.002285
4.653	-0.002267
4.654	-0.0023
4.655	-0.002306
4.656	-0.002333
4.657	-0.002312
4.658	-0.002293
4.659	-0.002341
4.66	-0.002299
4.661	-0.002327
4.662	-0.002329
4.663	-0.002295
4.664	-0.002306
4.665	-0.002296
4.666	-0.00232
4.667	-0.002304
4.668	-0.002335
4.669	-0.002292
4.67	-0.002346
4.671	-0.002288
4.672	-0.002358
4.673	-0.002327
4.674	-0.0023
4.675	-0.002304
4.676	-0.002304
4.677	-0.00232
4.678	-0.002266
4.679	-0.002336
4.68	-0.002299
4.681	-0.00234
4.682	-0.002284
4.683	-0.002363
4.684	-0.002301
4.685	-0.002338
4.686	-0.002333
4.687	-0.002318
4.688	-0.00231
4.689	-0.002312
4.69	-0.002322
4.691	-0.002283
4.692	-0.002325
4.693	-0.002302
4.694	-0.00232
4.695	-0.00233
4.696	-0.002298
4.697	-0.002323
4.698	-0.002316
4.699	-0.002282
4.7	-0.002341
4.701	-0.002321
4.702	-0.002252
4.703	-0.002305
4.704	-0.002303
4.705	-0.002324
4.706	-0.002296
4.707	-0.00234
4.708	-0.002314
4.709	-0.00231
4.71	-0.002289
4.711	-0.002318
4.712	-0.002378
4.713	-0.002272
4.714	-0.002308
4.715	-0.002286
4.716	-0.002292
4.717	-0.002308
4.718	-0.002307
4.719	-0.002316
4.72	-0.002292
4.721	-0.0023
4.722	-0.002319
4.723	-0.002343
4.724	-0.002299
4.725	-0.002358
4.726	-0.002327
4.727	-0.002298
4.728	-0.002286
4.729	-0.002341
4.73	-0.002296
4.731	-0.002324
4.732	-0.002326
4.733	-0.002321
4.734	-0.002299
4.735	-0.002247
4.736	-0.002242
4.737	-0.002217
4.738	-0.002171
4.739	-0.002151
4.74	-0.002133
4.741	-0.002071
4.742	-0.002058
4.743	-0.001997
4.744	-0.001993
4.745	-0.001979
4.746	-0.001957
4.747	-0.001948
4.748	-0.001917
4.749	-0.002088
4.75	-0.002096
4.751	-0.002291
4.752	-0.002395
4.753	-0.002604
4.754	-0.002683
4.755	-0.002886
4.756	-0.003053
4.757	-0.003215
4.758	-0.003296
4.759	-0.003501
4.76	-0.003657
4.761	-0.003833
4.762	-0.003948
4.763	-0.004125
4.764	-0.004243
4.765	-0.004433
4.766	-0.00453
4.767	-0.004768
4.768	-0.004892
4.769	-0.005095
4.77	-0.005203
4.771	-0.005412
4.772	-0.005458
4.773	-0.005399
4.774	-0.00529
4.775	-0.005186
4.776	-0.005045
4.777	-0.004889
4.778	-0.004772
4.779	-0.00458
4.78	-0.004489
4.781	-0.004295
4.782	-0.004193
4.783	-0.003987
4.784	-0.003896
4.785	-0.003698
4.786	-0.003569
4.787	-0.00337
4.788	-0.003251
4.789	-0.00312
4.79	-0.00295
4.791	-0.002742
4.792	-0.002711
4.793	-0.002481
4.794	-0.002393
4.795	-0.002176
4.796	-0.002091
4.797	-0.002002
4.798	-0.002022
4.799	-0.001993
4.8	-0.002013
4.801	-0.002045
4.802	-0.002073
4.803	-0.002082
4.804	-0.002102
4.805	-0.002127
4.806	-0.002172
4.807	-0.002205
4.808	-0.002205
4.809	-0.002246
4.81	-0.00224
4.811	-0.00229
4.812	-0.002272
4.813	-0.002294
4.814	-0.002284
4.815	-0.002318
4.816	-0.002292
4.817	-0.002297
4.818	-0.002305
4.819	-0.002306
4.82	-0.002294
4.821	-0.002317
4.822	-0.002295
4.823	-0.002261
4.824	-0.002366
4.825	-0.00228
4.826	-0.002324
4.827	-0.002326
4.828	-0.00231
4.829	-0.002263
4.83	-0.002324
4.831	-0.002339
4.832	-0.002307
4.833	-0.002284
4.834	-0.002285
4.835	-0.002361
4.836	-0.002288
4.837	-0.002311
4.838	-0.002295
4.839	-0.002304
4.84	-0.002287
4.841	-0.002288
4.842	-0.002268
4.843	-0.002303
4.844	-0.002299
4.845	-0.002289
4.846	-0.00226
4.847	-0.002303
4.848	-0.002327
4.849	-0.002324
4.85	-0.002274
4.851	-0.002333
4.852	-0.002344
4.853	-0.002294
4.854	-0.002292
4.855	-0.002336
4.856	-0.002338
4.857	-0.002318
4.858	-0.002253
4.859	-0.002318
4.86	-0.002338
4.861	-0.002353
4.862	-0.002337
4.863	-0.002334
4.864	-0.002371
4.865	-0.002352
4.866	-0.002353
4.867	-0.002383
4.868	-0.002365
4.869	-0.002378
4.87	-0.002351
4.871	-0.002349
4.872	-0.002344
4.873	-0.002345
4.874	-0.002392
4.875	-0.002337
4.876	-0.00237
4.877	-0.002384
4.878	-0.002334
4.879	-0.002346
4.88	-0.002346
4.881	-0.002363
4.882	-0.002326
4.883	-0.002388
4.884	-0.002349
4.885	-0.002389
4.886	-0.002376
4.887	-0.002426
4.888	-0.002385
4.889	-0.002418
4.89	-0.002403
4.891	-0.002445
4.892	-0.002428
4.893	-0.002417
4.894	-0.00245
4.895	-0.002393
4.896	-0.002453
4.897	-0.002405
4.898	-0.002436
4.899	-0.002442
4.9	-0.002473
4.901	-0.00247
4.902	-0.002437
4.903	-0.002491
4.904	-0.002451
4.905	-0.002473
4.906	-0.002421
4.907	-0.002438
4.908	-0.002443
4.909	-0.002482
4.91	-0.002429
4.911	-0.002445
4.912	-0.002479
4.913	-0.002511
4.914	-0.002484
4.915	-0.00251
4.916	-0.002498
4.917	-0.002457
4.918	-0.002478
4.919	-0.002425
4.92	-0.002482
4.921	-0.002453
4.922	-0.002495
4.923	-0.002494
4.924	-0.002485
4.925	-0.002523
4.926	-0.002486
4.927	-0.002519
4.928	-0.002494
4.929	-0.002535
4.93	-0.002467
4.931	-0.002518
4.932	-0.00247
4.933	-0.00251
4.934	-0.002506
4.935	-0.002513
4.936	-0.002504
4.937	-0.002518
4.938	-0.002575
4.939	-0.002534
4.94	-0.002522
4.941	-0.002501
4.942	-0.002534
4.943	-0.002535
4.944	-0.002526
4.945	-0.002525
4.946	-0.002554
4.947	-0.002558
4.948	-0.002591
4.949	-0.002617
4.95	-0.002571
4.951	-0.002584
4.952	-0.002619
4.953	-0.002589
4.954	-0.002583
4.955	-0.002653
4.956	-0.002623
4.957	-0.002608
4.958	-0.002583
4.959	-0.002583
4.96	-0.002594
4.961	-0.00261
4.962	-0.002674
4.963	-0.00265
4.964	-0.002674
4.965	-0.002655
4.966	-0.002663
4.967	-0.002692
4.968	-0.00264
4.969	-0.002689
4.97	-0.002628
4.971	-0.002652
4.972	-0.002711
4.973	-0.002671
4.974	-0.002653
4.975	-0.002708
4.976	-0.002682
4.977	-0.002761
4.978	-0.002702
4.979	-0.002712
4.98	-0.002719
4.981	-0.002741
4.982	-0.0027
4.983	-0.002726
4.984	-0.00274
4.985	-0.002787
4.986	-0.0028
4.987	-0.002803
4.988	-0.002797
4.989	-0.00283
4.99	-0.002799
4.991	-0.002874
4.992	-0.002834
4.993	-0.002817
4.994	-0.002838
4.995	-0.002865
4.996	-0.002882
4.997	-0.002869
4.998	-0.00285
4.999	-0.002841
5	-0.00289
