0	3.97E+00
0.001	6.38E+00
0.002	5.58E+00
0.003	4.77E+00
0.004	1.57E+00
0.005	9.58E+00
0.006	6.38E+00
0.007	9.58E+00
0.008	2.37E+00
0.009	3.17E+00
0.01	1.57E+00
0.011	3.97E+00
0.012	3.97E+00
0.013	6.38E+00
0.014	7.18E+00
0.015	5.58E+00
0.016	2.37E+00
0.017	5.58E+00
0.018	4.77E+00
0.019	3.17E+00
0.02	7.98E+00
0.021	6.38E+00
0.022	7.98E+00
0.023	5.58E+00
0.024	6.38E+00
0.025	5.58E+00
0.026	6.38E+00
0.027	1.57E+00
0.028	5.58E+00
0.029	5.58E+00
0.03	5.58E+00
0.031	5.58E+00
0.032	5.58E+00
0.033	7.18E+00
0.034	4.77E+00
0.035	4.77E+00
0.036	7.18E+00
0.037	6.38E+00
0.038	4.77E+00
0.039	6.38E+00
0.04	6.38E+00
0.041	7.18E+00
0.042	5.58E+00
0.043	8.78E+00
0.044	3.17E+00
0.045	3.17E+00
0.046	6.38E+00
0.047	6.38E+00
0.048	3.17E+00
0.049	8.78E+00
0.05	7.18E+00
0.051	6.38E+00
0.052	6.38E+00
0.053	5.58E+00
0.054	5.58E+00
0.055	6.38E+00
0.056	7.18E+00
0.057	7.18E+00
0.058	7.98E+00
0.059	8.78E+00
0.06	7.18E+00
0.061	3.97E+00
0.062	5.58E+00
0.063	8.78E+00
0.064	7.98E+00
0.065	6.38E+00
0.066	7.98E+00
0.067	5.58E+00
0.068	7.18E+00
0.069	6.38E+00
0.07	7.98E+00
0.071	6.38E+00
0.072	5.58E+00
0.073	3.97E+00
0.074	6.38E+00
0.075	4.77E+00
0.076	1.04E+01
0.077	9.58E+00
0.078	3.97E+00
0.079	7.98E+00
0.08	3.17E+00
0.081	7.98E+00
0.082	4.77E+00
0.083	1.12E+01
0.084	5.58E+00
0.085	7.18E+00
0.086	7.66E-01
0.087	1.20E+01
0.088	9.58E+00
0.089	7.18E+00
0.09	4.77E+00
0.091	5.58E+00
0.092	7.18E+00
0.093	6.38E+00
0.094	7.18E+00
0.095	7.98E+00
0.096	7.18E+00
0.097	3.97E+00
0.098	6.38E+00
0.099	7.18E+00
0.1	6.38E+00
0.101	6.38E+00
0.102	9.58E+00
0.103	7.18E+00
0.104	9.58E+00
0.105	3.17E+00
0.106	7.98E+00
0.107	7.98E+00
0.108	3.97E+00
0.109	7.98E+00
0.11	6.38E+00
0.111	6.38E+00
0.112	7.18E+00
0.113	6.38E+00
0.114	7.18E+00
0.115	7.98E+00
0.116	7.98E+00
0.117	5.58E+00
0.118	7.98E+00
0.119	4.77E+00
0.12	7.18E+00
0.121	5.58E+00
0.122	4.77E+00
0.123	5.58E+00
0.124	7.98E+00
0.125	6.38E+00
0.126	7.18E+00
0.127	8.78E+00
0.128	5.58E+00
0.129	6.38E+00
0.13	5.58E+00
0.131	5.58E+00
0.132	6.38E+00
0.133	2.37E+00
0.134	1.04E+01
0.135	5.58E+00
0.136	6.38E+00
0.137	6.38E+00
0.138	4.77E+00
0.139	6.38E+00
0.14	6.38E+00
0.141	8.78E+00
0.142	7.18E+00
0.143	3.97E+00
0.144	3.17E+00
0.145	9.58E+00
0.146	9.58E+00
0.147	3.97E+00
0.148	6.38E+00
0.149	9.58E+00
0.15	4.77E+00
0.151	8.78E+00
0.152	8.78E+00
0.153	9.58E+00
0.154	7.98E+00
0.155	8.78E+00
0.156	7.98E+00
0.157	3.97E+00
0.158	7.18E+00
0.159	3.17E+00
0.16	7.18E+00
0.161	3.97E+00
0.162	3.97E+00
0.163	7.98E+00
0.164	1.57E+00
0.165	5.58E+00
0.166	6.38E+00
0.167	8.78E+00
0.168	3.97E+00
0.169	6.38E+00
0.17	6.38E+00
0.171	6.38E+00
0.172	1.12E+01
0.173	6.38E+00
0.174	5.58E+00
0.175	4.77E+00
0.176	7.18E+00
0.177	9.58E+00
0.178	7.98E+00
0.179	3.97E+00
0.18	1.57E+00
0.181	5.58E+00
0.182	1.57E+00
0.183	4.77E+00
0.184	9.58E+00
0.185	3.17E+00
0.186	6.38E+00
0.187	8.78E+00
0.188	6.38E+00
0.189	4.77E+00
0.19	4.77E+00
0.191	8.78E+00
0.192	6.38E+00
0.193	2.37E+00
0.194	6.38E+00
0.195	7.18E+00
0.196	5.58E+00
0.197	3.17E+00
0.198	7.98E+00
0.199	6.38E+00
0.2	4.77E+00
0.201	3.17E+00
0.202	7.18E+00
0.203	6.38E+00
0.204	7.18E+00
0.205	7.18E+00
0.206	7.98E+00
0.207	7.98E+00
0.208	7.18E+00
0.209	9.58E+00
0.21	6.38E+00
0.211	6.38E+00
0.212	4.77E+00
0.213	7.18E+00
0.214	1.12E+01
0.215	6.38E+00
0.216	3.97E+00
0.217	7.18E+00
0.218	6.38E+00
0.219	8.78E+00
0.22	7.98E+00
0.221	1.57E+00
0.222	7.98E+00
0.223	3.17E+00
0.224	8.78E+00
0.225	7.18E+00
0.226	5.58E+00
0.227	1.57E+00
0.228	3.17E+00
0.229	6.38E+00
0.23	3.17E+00
0.231	6.38E+00
0.232	4.77E+00
0.233	3.17E+00
0.234	7.18E+00
0.235	7.18E+00
0.236	1.57E+00
0.237	3.97E+00
0.238	7.98E+00
0.239	3.17E+00
0.24	6.38E+00
0.241	3.97E+00
0.242	3.97E+00
0.243	8.78E+00
0.244	3.97E+00
0.245	7.18E+00
0.246	7.18E+00
0.247	6.38E+00
0.248	8.78E+00
0.249	5.58E+00
0.25	6.38E+00
0.251	1.57E+00
0.252	4.77E+00
0.253	4.77E+00
0.254	4.77E+00
0.255	7.98E+00
0.256	5.58E+00
0.257	5.58E+00
0.258	7.66E-01
0.259	3.97E+00
0.26	2.37E+00
0.261	7.98E+00
0.262	1.57E+00
0.263	6.38E+00
0.264	4.77E+00
0.265	3.97E+00
0.266	6.38E+00
0.267	5.58E+00
0.268	4.77E+00
0.269	3.17E+00
0.27	3.17E+00
0.271	7.66E-01
0.272	2.37E+00
0.273	8.78E+00
0.274	3.97E+00
0.275	7.18E+00
0.276	5.58E+00
0.277	7.18E+00
0.278	1.57E+00
0.279	6.38E+00
0.28	2.37E+00
0.281	2.37E+00
0.282	9.58E+00
0.283	7.98E+00
0.284	4.77E+00
0.285	7.98E+00
0.286	8.78E+00
0.287	8.78E+00
0.288	9.58E+00
0.289	3.97E+00
0.29	7.98E+00
0.291	7.98E+00
0.292	5.58E+00
0.293	1.20E+01
0.294	7.18E+00
0.295	6.38E+00
0.296	8.78E+00
0.297	4.77E+00
0.298	5.58E+00
0.299	9.58E+00
0.3	7.98E+00
0.301	6.38E+00
0.302	8.78E+00
0.303	5.58E+00
0.304	7.18E+00
0.305	8.78E+00
0.306	7.98E+00
0.307	8.78E+00
0.308	7.98E+00
0.309	6.38E+00
0.31	8.78E+00
0.311	7.98E+00
0.312	4.77E+00
0.313	7.98E+00
0.314	7.18E+00
0.315	4.77E+00
0.316	7.18E+00
0.317	6.38E+00
0.318	9.58E+00
0.319	7.98E+00
0.32	1.12E+01
0.321	6.38E+00
0.322	7.98E+00
0.323	1.57E+00
0.324	4.77E+00
0.325	6.38E+00
0.326	7.18E+00
0.327	5.58E+00
0.328	4.77E+00
0.329	7.98E+00
0.33	5.58E+00
0.331	7.18E+00
0.332	6.38E+00
0.333	3.17E+00
0.334	9.58E+00
0.335	7.18E+00
0.336	4.77E+00
0.337	7.18E+00
0.338	9.58E+00
0.339	9.58E+00
0.34	7.18E+00
0.341	6.38E+00
0.342	1.04E+01
0.343	5.58E+00
0.344	4.77E+00
0.345	7.18E+00
0.346	4.77E+00
0.347	7.18E+00
0.348	1.04E+01
0.349	3.97E+00
0.35	4.77E+00
0.351	1.57E+00
0.352	5.58E+00
0.353	6.38E+00
0.354	6.38E+00
0.355	7.18E+00
0.356	4.77E+00
0.357	6.38E+00
0.358	7.18E+00
0.359	6.38E+00
0.36	5.58E+00
0.361	8.78E+00
0.362	6.38E+00
0.363	7.98E+00
0.364	4.77E+00
0.365	6.38E+00
0.366	5.58E+00
0.367	7.18E+00
0.368	8.78E+00
0.369	9.58E+00
0.37	7.98E+00
0.371	3.17E+00
0.372	8.78E+00
0.373	7.98E+00
0.374	7.18E+00
0.375	7.18E+00
0.376	7.98E+00
0.377	6.38E+00
0.378	7.98E+00
0.379	4.77E+00
0.38	7.98E+00
0.381	7.66E-01
0.382	5.58E+00
0.383	5.58E+00
0.384	7.18E+00
0.385	7.98E+00
0.386	4.77E+00
0.387	6.38E+00
0.388	5.58E+00
0.389	8.78E+00
0.39	6.38E+00
0.391	6.38E+00
0.392	3.17E+00
0.393	5.58E+00
0.394	6.38E+00
0.395	2.37E+00
0.396	3.97E+00
0.397	7.98E+00
0.398	7.98E+00
0.399	3.97E+00
0.4	1.04E+01
0.401	7.98E+00
0.402	6.38E+00
0.403	9.58E+00
0.404	1.04E+01
0.405	6.38E+00
0.406	8.78E+00
0.407	6.38E+00
0.408	6.38E+00
0.409	7.18E+00
0.41	8.78E+00
0.411	7.98E+00
0.412	9.58E+00
0.413	5.58E+00
0.414	5.58E+00
0.415	7.18E+00
0.416	6.38E+00
0.417	3.97E+00
0.418	3.97E+00
0.419	3.97E+00
0.42	7.98E+00
0.421	7.18E+00
0.422	7.18E+00
0.423	5.58E+00
0.424	9.58E+00
0.425	3.17E+00
0.426	6.38E+00
0.427	5.58E+00
0.428	3.97E+00
0.429	7.98E+00
0.43	4.77E+00
0.431	3.97E+00
0.432	7.18E+00
0.433	6.38E+00
0.434	3.17E+00
0.435	5.58E+00
0.436	8.78E+00
0.437	9.58E+00
0.438	6.38E+00
0.439	5.58E+00
0.44	7.98E+00
0.441	2.37E+00
0.442	7.18E+00
0.443	6.38E+00
0.444	9.58E+00
0.445	6.38E+00
0.446	7.98E+00
0.447	6.38E+00
0.448	7.18E+00
0.449	4.77E+00
0.45	7.18E+00
0.451	8.78E+00
0.452	7.18E+00
0.453	6.38E+00
0.454	5.58E+00
0.455	6.38E+00
0.456	3.17E+00
0.457	7.66E-01
0.458	7.98E+00
0.459	3.17E+00
0.46	8.78E+00
0.461	5.58E+00
0.462	7.18E+00
0.463	5.58E+00
0.464	5.58E+00
0.465	3.17E+00
0.466	4.77E+00
0.467	3.17E+00
0.468	5.58E+00
0.469	8.78E+00
0.47	2.37E+00
0.471	6.38E+00
0.472	3.97E+00
0.473	1.04E+01
0.474	7.18E+00
0.475	5.58E+00
0.476	7.98E+00
0.477	8.78E+00
0.478	7.18E+00
0.479	3.17E+00
0.48	7.18E+00
0.481	3.97E+00
0.482	5.58E+00
0.483	3.17E+00
0.484	7.98E+00
0.485	4.77E+00
0.486	2.37E+00
0.487	5.58E+00
0.488	7.98E+00
0.489	4.77E+00
0.49	7.98E+00
0.491	6.38E+00
0.492	5.58E+00
0.493	5.58E+00
0.494	2.37E+00
0.495	3.97E+00
0.496	4.77E+00
0.497	7.66E-01
0.498	6.38E+00
0.499	3.17E+00
0.5	8.78E+00
0.501	6.38E+00
0.502	4.77E+00
0.503	4.77E+00
0.504	8.78E+00
0.505	4.77E+00
0.506	5.58E+00
0.507	8.78E+00
0.508	3.17E+00
0.509	7.98E+00
0.51	2.37E+00
0.511	5.58E+00
0.512	4.77E+00
0.513	7.98E+00
0.514	7.98E+00
0.515	6.38E+00
0.516	7.98E+00
0.517	7.98E+00
0.518	3.97E+00
0.519	3.17E+00
0.52	7.18E+00
0.521	7.18E+00
0.522	3.17E+00
0.523	7.98E+00
0.524	7.98E+00
0.525	3.97E+00
0.526	5.58E+00
0.527	6.38E+00
0.528	7.18E+00
0.529	3.97E+00
0.53	4.77E+00
0.531	9.58E+00
0.532	3.97E+00
0.533	5.58E+00
0.534	9.58E+00
0.535	4.77E+00
0.536	9.58E+00
0.537	7.98E+00
0.538	4.77E+00
0.539	5.58E+00
0.54	5.58E+00
0.541	3.17E+00
0.542	2.37E+00
0.543	3.17E+00
0.544	6.38E+00
0.545	4.77E+00
0.546	7.18E+00
0.547	6.38E+00
0.548	9.58E+00
0.549	4.77E+00
0.55	5.58E+00
0.551	7.18E+00
0.552	4.77E+00
0.553	1.57E+00
0.554	3.17E+00
0.555	7.18E+00
0.556	5.58E+00
0.557	4.77E+00
0.558	3.17E+00
0.559	6.38E+00
0.56	7.98E+00
0.561	7.18E+00
0.562	3.97E+00
0.563	5.58E+00
0.564	7.98E+00
0.565	6.38E+00
0.566	5.58E+00
0.567	6.38E+00
0.568	4.77E+00
0.569	6.38E+00
0.57	5.58E+00
0.571	4.77E+00
0.572	3.97E+00
0.573	5.58E+00
0.574	8.78E+00
0.575	5.58E+00
0.576	3.17E+00
0.577	3.17E+00
0.578	4.77E+00
0.579	3.17E+00
0.58	4.77E+00
0.581	5.58E+00
0.582	3.17E+00
0.583	5.58E+00
0.584	3.97E+00
0.585	5.58E+00
0.586	5.58E+00
0.587	-8.37E-01
0.588	6.38E+00
0.589	-8.37E-01
0.59	3.97E+00
0.591	6.38E+00
0.592	5.58E+00
0.593	4.77E+00
0.594	5.58E+00
0.595	3.17E+00
0.596	7.66E-01
0.597	2.37E+00
0.598	4.77E+00
0.599	3.97E+00
0.6	3.97E+00
0.601	6.38E+00
0.602	1.04E+01
0.603	7.18E+00
0.604	6.38E+00
0.605	4.77E+00
0.606	3.97E+00
0.607	6.38E+00
0.608	9.58E+00
0.609	5.58E+00
0.61	3.97E+00
0.611	6.38E+00
0.612	5.58E+00
0.613	9.58E+00
0.614	-3.57E-02
0.615	6.38E+00
0.616	7.18E+00
0.617	5.58E+00
0.618	4.77E+00
0.619	2.37E+00
0.62	6.38E+00
0.621	5.58E+00
0.622	6.38E+00
0.623	6.38E+00
0.624	3.97E+00
0.625	6.38E+00
0.626	4.77E+00
0.627	3.97E+00
0.628	4.77E+00
0.629	3.17E+00
0.63	6.38E+00
0.631	8.78E+00
0.632	3.17E+00
0.633	7.98E+00
0.634	9.58E+00
0.635	3.97E+00
0.636	2.37E+00
0.637	3.97E+00
0.638	2.37E+00
0.639	1.57E+00
0.64	6.38E+00
0.641	4.77E+00
0.642	1.57E+00
0.643	6.38E+00
0.644	4.77E+00
0.645	7.98E+00
0.646	4.77E+00
0.647	3.17E+00
0.648	8.78E+00
0.649	5.58E+00
0.65	8.78E+00
0.651	7.98E+00
0.652	3.97E+00
0.653	9.58E+00
0.654	3.97E+00
0.655	8.78E+00
0.656	1.57E+00
0.657	3.17E+00
0.658	4.77E+00
0.659	3.97E+00
0.66	8.78E+00
0.661	3.97E+00
0.662	5.58E+00
0.663	7.98E+00
0.664	2.37E+00
0.665	3.97E+00
0.666	4.77E+00
0.667	4.77E+00
0.668	3.97E+00
0.669	4.77E+00
0.67	7.98E+00
0.671	5.58E+00
0.672	7.98E+00
0.673	3.97E+00
0.674	8.78E+00
0.675	4.77E+00
0.676	7.18E+00
0.677	6.38E+00
0.678	1.57E+00
0.679	3.17E+00
0.68	3.97E+00
0.681	6.38E+00
0.682	6.38E+00
0.683	5.58E+00
0.684	3.97E+00
0.685	6.38E+00
0.686	7.18E+00
0.687	5.58E+00
0.688	6.38E+00
0.689	6.38E+00
0.69	7.98E+00
0.691	7.98E+00
0.692	5.58E+00
0.693	5.58E+00
0.694	3.97E+00
0.695	7.66E-01
0.696	9.58E+00
0.697	3.97E+00
0.698	3.17E+00
0.699	4.77E+00
0.7	5.58E+00
0.701	7.18E+00
0.702	7.18E+00
0.703	4.77E+00
0.704	3.17E+00
0.705	6.38E+00
0.706	1.04E+01
0.707	8.78E+00
0.708	6.38E+00
0.709	6.38E+00
0.71	4.77E+00
0.711	7.98E+00
0.712	9.58E+00
0.713	3.17E+00
0.714	4.77E+00
0.715	8.78E+00
0.716	7.18E+00
0.717	2.37E+00
0.718	1.57E+00
0.719	7.18E+00
0.72	4.77E+00
0.721	2.37E+00
0.722	3.17E+00
0.723	3.97E+00
0.724	4.77E+00
0.725	3.97E+00
0.726	3.17E+00
0.727	6.38E+00
0.728	7.18E+00
0.729	6.38E+00
0.73	6.38E+00
0.731	7.98E+00
0.732	3.97E+00
0.733	7.18E+00
0.734	9.58E+00
0.735	7.18E+00
0.736	7.98E+00
0.737	8.78E+00
0.738	5.58E+00
0.739	3.97E+00
0.74	4.77E+00
0.741	4.77E+00
0.742	3.17E+00
0.743	4.77E+00
0.744	6.38E+00
0.745	6.38E+00
0.746	3.97E+00
0.747	4.77E+00
0.748	6.38E+00
0.749	3.17E+00
0.75	5.58E+00
0.751	6.38E+00
0.752	3.17E+00
0.753	2.37E+00
0.754	6.38E+00
0.755	2.37E+00
0.756	7.18E+00
0.757	3.17E+00
0.758	9.58E+00
0.759	3.17E+00
0.76	5.58E+00
0.761	5.58E+00
0.762	5.58E+00
0.763	3.17E+00
0.764	7.66E-01
0.765	8.78E+00
0.766	5.58E+00
0.767	9.58E+00
0.768	5.58E+00
0.769	4.77E+00
0.77	6.38E+00
0.771	3.97E+00
0.772	6.38E+00
0.773	3.97E+00
0.774	4.77E+00
0.775	4.77E+00
0.776	5.58E+00
0.777	4.77E+00
0.778	5.58E+00
0.779	8.78E+00
0.78	6.38E+00
0.781	3.97E+00
0.782	7.18E+00
0.783	6.38E+00
0.784	6.38E+00
0.785	4.77E+00
0.786	3.17E+00
0.787	7.98E+00
0.788	3.97E+00
0.789	3.17E+00
0.79	3.97E+00
0.791	5.58E+00
0.792	9.58E+00
0.793	5.58E+00
0.794	5.58E+00
0.795	8.78E+00
0.796	6.38E+00
0.797	5.58E+00
0.798	3.97E+00
0.799	5.58E+00
0.8	3.17E+00
0.801	7.18E+00
0.802	1.04E+01
0.803	9.58E+00
0.804	3.97E+00
0.805	8.78E+00
0.806	7.98E+00
0.807	5.58E+00
0.808	1.57E+00
0.809	6.38E+00
0.81	4.77E+00
0.811	6.38E+00
0.812	3.97E+00
0.813	6.38E+00
0.814	3.97E+00
0.815	6.38E+00
0.816	4.77E+00
0.817	7.98E+00
0.818	3.97E+00
0.819	7.98E+00
0.82	4.77E+00
0.821	3.97E+00
0.822	5.58E+00
0.823	3.17E+00
0.824	7.18E+00
0.825	4.77E+00
0.826	-3.57E-02
0.827	6.38E+00
0.828	7.18E+00
0.829	5.58E+00
0.83	6.38E+00
0.831	1.12E+01
0.832	7.18E+00
0.833	5.58E+00
0.834	3.17E+00
0.835	4.77E+00
0.836	5.58E+00
0.837	5.58E+00
0.838	4.77E+00
0.839	3.97E+00
0.84	7.18E+00
0.841	5.58E+00
0.842	6.38E+00
0.843	9.58E+00
0.844	9.58E+00
0.845	3.97E+00
0.846	4.77E+00
0.847	7.18E+00
0.848	6.38E+00
0.849	3.97E+00
0.85	6.38E+00
0.851	4.77E+00
0.852	6.38E+00
0.853	9.58E+00
0.854	6.38E+00
0.855	5.58E+00
0.856	7.18E+00
0.857	6.38E+00
0.858	6.38E+00
0.859	7.18E+00
0.86	1.57E+00
0.861	3.17E+00
0.862	5.58E+00
0.863	1.12E+01
0.864	6.38E+00
0.865	7.18E+00
0.866	8.78E+00
0.867	4.77E+00
0.868	5.58E+00
0.869	4.77E+00
0.87	4.77E+00
0.871	7.98E+00
0.872	4.77E+00
0.873	8.78E+00
0.874	7.18E+00
0.875	4.77E+00
0.876	6.38E+00
0.877	3.17E+00
0.878	7.98E+00
0.879	5.58E+00
0.88	5.58E+00
0.881	5.58E+00
0.882	6.38E+00
0.883	1.12E+01
0.884	6.38E+00
0.885	7.18E+00
0.886	6.38E+00
0.887	5.58E+00
0.888	6.38E+00
0.889	1.04E+01
0.89	7.18E+00
0.891	3.97E+00
0.892	4.77E+00
0.893	8.78E+00
0.894	1.57E+00
0.895	6.38E+00
0.896	9.58E+00
0.897	7.18E+00
0.898	3.17E+00
0.899	6.38E+00
0.9	1.20E+01
0.901	3.17E+00
0.902	7.66E-01
0.903	7.98E+00
0.904	4.77E+00
0.905	8.78E+00
0.906	6.38E+00
0.907	2.37E+00
0.908	6.38E+00
0.909	3.17E+00
0.91	8.78E+00
0.911	7.18E+00
0.912	4.77E+00
0.913	3.17E+00
0.914	9.58E+00
0.915	2.37E+00
0.916	4.77E+00
0.917	5.58E+00
0.918	6.38E+00
0.919	8.78E+00
0.92	8.78E+00
0.921	5.58E+00
0.922	3.17E+00
0.923	7.98E+00
0.924	3.97E+00
0.925	5.58E+00
0.926	8.78E+00
0.927	7.18E+00
0.928	4.77E+00
0.929	5.58E+00
0.93	6.38E+00
0.931	5.58E+00
0.932	7.98E+00
0.933	4.77E+00
0.934	6.38E+00
0.935	3.97E+00
0.936	6.38E+00
0.937	4.77E+00
0.938	6.38E+00
0.939	4.77E+00
0.94	7.98E+00
0.941	7.98E+00
0.942	6.38E+00
0.943	6.38E+00
0.944	6.38E+00
0.945	7.18E+00
0.946	6.38E+00
0.947	5.58E+00
0.948	4.77E+00
0.949	7.18E+00
0.95	4.77E+00
0.951	5.58E+00
0.952	4.77E+00
0.953	7.18E+00
0.954	7.18E+00
0.955	6.38E+00
0.956	5.58E+00
0.957	5.58E+00
0.958	3.17E+00
0.959	6.38E+00
0.96	1.12E+01
0.961	1.12E+01
0.962	7.18E+00
0.963	4.77E+00
0.964	3.17E+00
0.965	6.38E+00
0.966	1.12E+01
0.967	7.18E+00
0.968	3.17E+00
0.969	4.77E+00
0.97	7.98E+00
0.971	6.38E+00
0.972	9.58E+00
0.973	8.78E+00
0.974	9.58E+00
0.975	3.97E+00
0.976	6.38E+00
0.977	3.97E+00
0.978	4.77E+00
0.979	7.18E+00
0.98	7.98E+00
0.981	3.17E+00
0.982	3.17E+00
0.983	5.58E+00
0.984	8.78E+00
0.985	8.78E+00
0.986	7.18E+00
0.987	4.77E+00
0.988	3.17E+00
0.989	6.38E+00
0.99	7.98E+00
0.991	3.97E+00
0.992	6.38E+00
0.993	1.20E+01
0.994	9.58E+00
0.995	6.38E+00
0.996	6.38E+00
0.997	4.77E+00
0.998	7.18E+00
0.999	6.38E+00
1	7.98E+00
1.001	4.77E+00
1.002	4.77E+00
1.003	9.58E+00
1.004	4.77E+00
1.005	3.17E+00
1.006	6.38E+00
1.007	5.58E+00
1.008	6.38E+00
1.009	3.17E+00
1.01	3.97E+00
1.011	5.58E+00
1.012	7.98E+00
1.013	7.98E+00
1.014	3.97E+00
1.015	6.38E+00
1.016	7.18E+00
1.017	4.77E+00
1.018	4.77E+00
1.019	3.97E+00
1.02	7.98E+00
1.021	6.38E+00
1.022	5.58E+00
1.023	6.38E+00
1.024	5.58E+00
1.025	5.58E+00
1.026	6.38E+00
1.027	7.18E+00
1.028	6.38E+00
1.029	5.58E+00
1.03	6.38E+00
1.031	3.97E+00
1.032	7.98E+00
1.033	5.58E+00
1.034	5.58E+00
1.035	9.58E+00
1.036	5.58E+00
1.037	6.38E+00
1.038	5.58E+00
1.039	6.38E+00
1.04	7.98E+00
1.041	3.17E+00
1.042	6.38E+00
1.043	2.37E+00
1.044	3.97E+00
1.045	8.78E+00
1.046	3.97E+00
1.047	3.97E+00
1.048	3.97E+00
1.049	4.77E+00
1.05	6.38E+00
1.051	3.17E+00
1.052	4.77E+00
1.053	7.98E+00
1.054	7.18E+00
1.055	5.58E+00
1.056	2.37E+00
1.057	2.37E+00
1.058	7.18E+00
1.059	4.77E+00
1.06	7.98E+00
1.061	4.77E+00
1.062	5.58E+00
1.063	7.98E+00
1.064	3.17E+00
1.065	-3.57E-02
1.066	3.17E+00
1.067	6.38E+00
1.068	3.17E+00
1.069	3.97E+00
1.07	5.58E+00
1.071	1.57E+00
1.072	3.17E+00
1.073	3.17E+00
1.074	7.98E+00
1.075	7.18E+00
1.076	3.97E+00
1.077	9.58E+00
1.078	6.38E+00
1.079	3.17E+00
1.08	4.77E+00
1.081	5.58E+00
1.082	7.18E+00
1.083	3.97E+00
1.084	6.38E+00
1.085	4.77E+00
1.086	-3.57E-02
1.087	2.37E+00
1.088	1.57E+00
1.089	2.37E+00
1.09	2.37E+00
1.091	6.38E+00
1.092	5.58E+00
1.093	1.57E+00
1.094	1.57E+00
1.095	3.17E+00
1.096	7.66E-01
1.097	5.58E+00
1.098	4.77E+00
1.099	8.78E+00
1.1	5.58E+00
1.101	6.38E+00
1.102	4.77E+00
1.103	4.77E+00
1.104	3.17E+00
1.105	9.58E+00
1.106	7.18E+00
1.107	7.18E+00
1.108	7.98E+00
1.109	3.17E+00
1.11	3.97E+00
1.111	5.58E+00
1.112	5.58E+00
1.113	1.57E+00
1.114	6.38E+00
1.115	3.97E+00
1.116	3.17E+00
1.117	2.37E+00
1.118	3.97E+00
1.119	3.97E+00
1.12	7.18E+00
1.121	3.17E+00
1.122	6.38E+00
1.123	6.38E+00
1.124	5.58E+00
1.125	5.58E+00
1.126	5.58E+00
1.127	4.77E+00
1.128	3.97E+00
1.129	4.77E+00
1.13	4.77E+00
1.131	8.78E+00
1.132	3.97E+00
1.133	7.98E+00
1.134	1.04E+01
1.135	7.18E+00
1.136	5.58E+00
1.137	8.78E+00
1.138	7.18E+00
1.139	5.58E+00
1.14	6.38E+00
1.141	5.58E+00
1.142	8.78E+00
1.143	9.58E+00
1.144	3.17E+00
1.145	6.38E+00
1.146	5.58E+00
1.147	4.77E+00
1.148	3.17E+00
1.149	3.17E+00
1.15	4.77E+00
1.151	7.18E+00
1.152	3.97E+00
1.153	9.58E+00
1.154	7.18E+00
1.155	6.38E+00
1.156	7.18E+00
1.157	3.17E+00
1.158	4.77E+00
1.159	4.77E+00
1.16	3.17E+00
1.161	6.38E+00
1.162	2.37E+00
1.163	3.97E+00
1.164	3.17E+00
1.165	6.38E+00
1.166	3.17E+00
1.167	4.77E+00
1.168	7.98E+00
1.169	9.58E+00
1.17	3.17E+00
1.171	7.98E+00
1.172	3.17E+00
1.173	5.58E+00
1.174	3.17E+00
1.175	7.18E+00
1.176	7.98E+00
1.177	4.77E+00
1.178	4.77E+00
1.179	3.97E+00
1.18	3.97E+00
1.181	8.78E+00
1.182	6.38E+00
1.183	5.58E+00
1.184	5.58E+00
1.185	6.38E+00
1.186	7.98E+00
1.187	4.77E+00
1.188	6.38E+00
1.189	1.57E+00
1.19	4.77E+00
1.191	6.38E+00
1.192	3.97E+00
1.193	5.58E+00
1.194	4.77E+00
1.195	5.58E+00
1.196	9.58E+00
1.197	7.98E+00
1.198	3.97E+00
1.199	7.18E+00
1.2	7.98E+00
1.201	6.38E+00
1.202	6.38E+00
1.203	3.17E+00
1.204	6.38E+00
1.205	7.18E+00
1.206	3.97E+00
1.207	6.38E+00
1.208	4.77E+00
1.209	7.98E+00
1.21	1.57E+00
1.211	8.78E+00
1.212	3.97E+00
1.213	5.58E+00
1.214	9.58E+00
1.215	6.38E+00
1.216	4.77E+00
1.217	7.18E+00
1.218	7.98E+00
1.219	6.38E+00
1.22	5.58E+00
1.221	7.98E+00
1.222	3.97E+00
1.223	8.78E+00
1.224	6.38E+00
1.225	4.77E+00
1.226	6.38E+00
1.227	7.98E+00
1.228	6.38E+00
1.229	4.77E+00
1.23	7.98E+00
1.231	9.58E+00
1.232	7.98E+00
1.233	7.98E+00
1.234	9.58E+00
1.235	3.97E+00
1.236	7.18E+00
1.237	7.98E+00
1.238	7.18E+00
1.239	6.38E+00
1.24	5.58E+00
1.241	7.98E+00
1.242	5.58E+00
1.243	9.58E+00
1.244	9.58E+00
1.245	7.98E+00
1.246	7.18E+00
1.247	7.18E+00
1.248	5.58E+00
1.249	4.77E+00
1.25	7.98E+00
1.251	4.77E+00
1.252	6.38E+00
1.253	3.17E+00
1.254	7.98E+00
1.255	9.58E+00
1.256	4.77E+00
1.257	7.18E+00
1.258	3.97E+00
1.259	3.17E+00
1.26	2.37E+00
1.261	8.78E+00
1.262	1.57E+00
1.263	5.58E+00
1.264	5.58E+00
1.265	-3.57E-02
1.266	3.97E+00
1.267	4.77E+00
1.268	3.97E+00
1.269	4.77E+00
1.27	5.58E+00
1.271	6.38E+00
1.272	7.18E+00
1.273	7.98E+00
1.274	4.77E+00
1.275	3.17E+00
1.276	2.37E+00
1.277	3.97E+00
1.278	8.78E+00
1.279	6.38E+00
1.28	5.58E+00
1.281	7.66E-01
1.282	2.37E+00
1.283	3.17E+00
1.284	7.18E+00
1.285	9.58E+00
1.286	3.97E+00
1.287	7.18E+00
1.288	4.77E+00
1.289	1.57E+00
1.29	5.58E+00
1.291	5.58E+00
1.292	3.97E+00
1.293	6.38E+00
1.294	7.98E+00
1.295	3.17E+00
1.296	2.37E+00
1.297	7.98E+00
1.298	3.17E+00
1.299	6.38E+00
1.3	7.18E+00
1.301	7.98E+00
1.302	5.58E+00
1.303	6.38E+00
1.304	8.78E+00
1.305	4.77E+00
1.306	1.12E+01
1.307	7.98E+00
1.308	1.20E+01
1.309	6.38E+00
1.31	3.17E+00
1.311	5.58E+00
1.312	8.78E+00
1.313	8.78E+00
1.314	3.97E+00
1.315	2.37E+00
1.316	4.77E+00
1.317	4.77E+00
1.318	7.98E+00
1.319	2.37E+00
1.32	6.38E+00
1.321	3.97E+00
1.322	7.98E+00
1.323	5.58E+00
1.324	9.58E+00
1.325	3.17E+00
1.326	5.58E+00
1.327	6.38E+00
1.328	5.58E+00
1.329	3.97E+00
1.33	7.98E+00
1.331	6.38E+00
1.332	7.18E+00
1.333	4.77E+00
1.334	8.78E+00
1.335	7.18E+00
1.336	7.98E+00
1.337	8.78E+00
1.338	6.38E+00
1.339	3.97E+00
1.34	3.97E+00
1.341	9.58E+00
1.342	-3.57E-02
1.343	7.18E+00
1.344	5.58E+00
1.345	7.98E+00
1.346	7.98E+00
1.347	4.77E+00
1.348	6.38E+00
1.349	6.38E+00
1.35	3.97E+00
1.351	7.98E+00
1.352	5.58E+00
1.353	5.58E+00
1.354	7.18E+00
1.355	3.97E+00
1.356	4.77E+00
1.357	5.58E+00
1.358	7.98E+00
1.359	6.38E+00
1.36	7.98E+00
1.361	6.38E+00
1.362	6.38E+00
1.363	4.77E+00
1.364	9.58E+00
1.365	8.78E+00
1.366	6.38E+00
1.367	6.38E+00
1.368	3.17E+00
1.369	1.57E+00
1.37	8.78E+00
1.371	5.58E+00
1.372	3.97E+00
1.373	1.57E+00
1.374	5.58E+00
1.375	3.97E+00
1.376	4.77E+00
1.377	4.77E+00
1.378	5.58E+00
1.379	7.18E+00
1.38	6.38E+00
1.381	4.77E+00
1.382	6.38E+00
1.383	6.38E+00
1.384	1.57E+00
1.385	6.38E+00
1.386	7.18E+00
1.387	4.77E+00
1.388	7.98E+00
1.389	3.97E+00
1.39	3.97E+00
1.391	4.77E+00
1.392	8.78E+00
1.393	7.98E+00
1.394	4.77E+00
1.395	6.38E+00
1.396	9.58E+00
1.397	7.98E+00
1.398	3.17E+00
1.399	3.97E+00
1.4	3.97E+00
1.401	1.04E+01
1.402	7.18E+00
1.403	6.38E+00
1.404	3.97E+00
1.405	7.98E+00
1.406	6.38E+00
1.407	7.18E+00
1.408	5.58E+00
1.409	7.98E+00
1.41	7.18E+00
1.411	3.17E+00
1.412	1.57E+00
1.413	7.98E+00
1.414	4.77E+00
1.415	5.58E+00
1.416	4.77E+00
1.417	7.18E+00
1.418	5.58E+00
1.419	7.98E+00
1.42	6.38E+00
1.421	2.37E+00
1.422	8.78E+00
1.423	8.78E+00
1.424	6.38E+00
1.425	4.77E+00
1.426	7.98E+00
1.427	7.98E+00
1.428	7.98E+00
1.429	7.18E+00
1.43	6.38E+00
1.431	8.78E+00
1.432	6.38E+00
1.433	5.58E+00
1.434	6.38E+00
1.435	7.18E+00
1.436	5.58E+00
1.437	3.17E+00
1.438	9.58E+00
1.439	3.17E+00
1.44	4.77E+00
1.441	6.38E+00
1.442	3.97E+00
1.443	3.17E+00
1.444	3.17E+00
1.445	7.98E+00
1.446	8.78E+00
1.447	8.78E+00
1.448	7.98E+00
1.449	5.58E+00
1.45	5.58E+00
1.451	5.58E+00
1.452	8.78E+00
1.453	7.98E+00
1.454	6.38E+00
1.455	4.77E+00
1.456	7.18E+00
1.457	7.18E+00
1.458	6.38E+00
1.459	8.78E+00
1.46	7.18E+00
1.461	7.18E+00
1.462	9.58E+00
1.463	9.58E+00
1.464	5.58E+00
1.465	1.12E+01
1.466	7.18E+00
1.467	5.58E+00
1.468	9.58E+00
1.469	7.18E+00
1.47	6.38E+00
1.471	7.18E+00
1.472	8.78E+00
1.473	5.58E+00
1.474	5.58E+00
1.475	4.77E+00
1.476	6.38E+00
1.477	7.98E+00
1.478	4.77E+00
1.479	8.78E+00
1.48	4.77E+00
1.481	5.58E+00
1.482	6.38E+00
1.483	7.98E+00
1.484	7.18E+00
1.485	3.97E+00
1.486	4.77E+00
1.487	4.77E+00
1.488	5.58E+00
1.489	5.58E+00
1.49	8.78E+00
1.491	7.18E+00
1.492	1.20E+01
1.493	3.97E+00
1.494	4.77E+00
1.495	4.77E+00
1.496	6.38E+00
1.497	9.58E+00
1.498	5.58E+00
1.499	3.17E+00
1.5	6.38E+00
1.501	7.98E+00
1.502	6.38E+00
1.503	7.98E+00
1.504	6.38E+00
1.505	6.38E+00
1.506	3.97E+00
1.507	3.97E+00
1.508	7.18E+00
1.509	6.38E+00
1.51	6.38E+00
1.511	6.38E+00
1.512	7.98E+00
1.513	4.77E+00
1.514	5.58E+00
1.515	2.37E+00
1.516	5.58E+00
1.517	4.77E+00
1.518	8.78E+00
1.519	3.97E+00
1.52	6.38E+00
1.521	8.78E+00
1.522	3.17E+00
1.523	1.04E+01
1.524	7.98E+00
1.525	7.98E+00
1.526	6.38E+00
1.527	5.58E+00
1.528	8.78E+00
1.529	9.58E+00
1.53	3.97E+00
1.531	2.37E+00
1.532	6.38E+00
1.533	6.38E+00
1.534	6.38E+00
1.535	7.98E+00
1.536	7.98E+00
1.537	5.58E+00
1.538	5.58E+00
1.539	5.58E+00
1.54	3.17E+00
1.541	7.98E+00
1.542	7.18E+00
1.543	7.98E+00
1.544	9.58E+00
1.545	7.98E+00
1.546	3.97E+00
1.547	6.38E+00
1.548	7.98E+00
1.549	6.38E+00
1.55	7.18E+00
1.551	7.98E+00
1.552	4.77E+00
1.553	7.18E+00
1.554	7.98E+00
1.555	7.18E+00
1.556	8.78E+00
1.557	3.97E+00
1.558	3.17E+00
1.559	7.18E+00
1.56	1.12E+01
1.561	5.58E+00
1.562	9.58E+00
1.563	6.38E+00
1.564	4.77E+00
1.565	9.58E+00
1.566	1.04E+01
1.567	7.98E+00
1.568	3.97E+00
1.569	6.38E+00
1.57	8.78E+00
1.571	7.98E+00
1.572	5.58E+00
1.573	7.98E+00
1.574	7.18E+00
1.575	7.18E+00
1.576	9.58E+00
1.577	6.38E+00
1.578	7.98E+00
1.579	9.58E+00
1.58	2.37E+00
1.581	6.38E+00
1.582	7.18E+00
1.583	9.58E+00
1.584	7.18E+00
1.585	7.18E+00
1.586	5.58E+00
1.587	5.58E+00
1.588	7.18E+00
1.589	7.98E+00
1.59	4.77E+00
1.591	5.58E+00
1.592	5.58E+00
1.593	9.58E+00
1.594	9.58E+00
1.595	5.58E+00
1.596	1.04E+01
1.597	3.97E+00
1.598	6.38E+00
1.599	7.18E+00
1.6	9.58E+00
1.601	6.38E+00
1.602	6.38E+00
1.603	4.77E+00
1.604	6.38E+00
1.605	7.18E+00
1.606	6.38E+00
1.607	7.98E+00
1.608	7.18E+00
1.609	6.38E+00
1.61	6.38E+00
1.611	6.38E+00
1.612	8.78E+00
1.613	7.98E+00
1.614	3.17E+00
1.615	4.77E+00
1.616	3.17E+00
1.617	5.58E+00
1.618	4.77E+00
1.619	5.58E+00
1.62	4.77E+00
1.621	3.97E+00
1.622	6.38E+00
1.623	3.17E+00
1.624	6.38E+00
1.625	6.38E+00
1.626	8.78E+00
1.627	8.78E+00
1.628	7.18E+00
1.629	8.78E+00
1.63	6.38E+00
1.631	7.98E+00
1.632	6.38E+00
1.633	7.98E+00
1.634	1.57E+00
1.635	5.58E+00
1.636	8.78E+00
1.637	5.58E+00
1.638	7.98E+00
1.639	7.18E+00
1.64	9.58E+00
1.641	5.58E+00
1.642	7.18E+00
1.643	3.97E+00
1.644	8.78E+00
1.645	6.38E+00
1.646	6.38E+00
1.647	6.38E+00
1.648	4.77E+00
1.649	4.77E+00
1.65	9.58E+00
1.651	7.18E+00
1.652	6.38E+00
1.653	7.18E+00
1.654	5.58E+00
1.655	3.97E+00
1.656	7.98E+00
1.657	7.98E+00
1.658	4.77E+00
1.659	8.78E+00
1.66	4.77E+00
1.661	6.38E+00
1.662	6.38E+00
1.663	5.58E+00
1.664	8.78E+00
1.665	4.77E+00
1.666	2.37E+00
1.667	3.97E+00
1.668	9.58E+00
1.669	2.37E+00
1.67	3.97E+00
1.671	3.17E+00
1.672	4.77E+00
1.673	2.37E+00
1.674	3.17E+00
1.675	7.18E+00
1.676	6.38E+00
1.677	3.17E+00
1.678	6.38E+00
1.679	7.18E+00
1.68	6.38E+00
1.681	4.77E+00
1.682	3.17E+00
1.683	4.77E+00
1.684	3.17E+00
1.685	7.98E+00
1.686	9.58E+00
1.687	5.58E+00
1.688	6.38E+00
1.689	1.12E+01
1.69	4.77E+00
1.691	7.18E+00
1.692	3.97E+00
1.693	6.38E+00
1.694	5.58E+00
1.695	6.38E+00
1.696	4.77E+00
1.697	3.97E+00
1.698	6.38E+00
1.699	8.78E+00
1.7	9.58E+00
1.701	7.98E+00
1.702	4.77E+00
1.703	4.77E+00
1.704	8.78E+00
1.705	7.98E+00
1.706	6.38E+00
1.707	4.77E+00
1.708	1.57E+00
1.709	7.98E+00
1.71	7.98E+00
1.711	8.78E+00
1.712	8.78E+00
1.713	4.77E+00
1.714	5.58E+00
1.715	3.97E+00
1.716	9.58E+00
1.717	2.37E+00
1.718	5.58E+00
1.719	3.97E+00
1.72	9.58E+00
1.721	5.58E+00
1.722	7.98E+00
1.723	7.18E+00
1.724	6.38E+00
1.725	5.58E+00
1.726	6.38E+00
1.727	7.18E+00
1.728	7.98E+00
1.729	6.38E+00
1.73	5.58E+00
1.731	7.18E+00
1.732	5.58E+00
1.733	7.18E+00
1.734	7.18E+00
1.735	5.58E+00
1.736	6.38E+00
1.737	5.58E+00
1.738	8.78E+00
1.739	9.58E+00
1.74	6.38E+00
1.741	7.18E+00
1.742	7.18E+00
1.743	7.98E+00
1.744	8.78E+00
1.745	5.58E+00
1.746	4.77E+00
1.747	8.78E+00
1.748	8.78E+00
1.749	7.18E+00
1.75	5.58E+00
1.751	7.18E+00
1.752	8.78E+00
1.753	1.57E+00
1.754	6.38E+00
1.755	7.18E+00
1.756	8.78E+00
1.757	3.17E+00
1.758	6.38E+00
1.759	7.18E+00
1.76	7.98E+00
1.761	4.77E+00
1.762	4.77E+00
1.763	7.98E+00
1.764	7.98E+00
1.765	7.18E+00
1.766	4.77E+00
1.767	5.58E+00
1.768	5.58E+00
1.769	3.17E+00
1.77	7.98E+00
1.771	2.37E+00
1.772	6.38E+00
1.773	9.58E+00
1.774	7.98E+00
1.775	4.77E+00
1.776	7.98E+00
1.777	3.97E+00
1.778	4.77E+00
1.779	3.97E+00
1.78	4.77E+00
1.781	4.77E+00
1.782	7.18E+00
1.783	7.98E+00
1.784	2.37E+00
1.785	5.58E+00
1.786	7.98E+00
1.787	1.04E+01
1.788	5.58E+00
1.789	6.38E+00
1.79	8.78E+00
1.791	5.58E+00
1.792	5.58E+00
1.793	7.98E+00
1.794	5.58E+00
1.795	9.58E+00
1.796	6.38E+00
1.797	3.17E+00
1.798	9.58E+00
1.799	7.18E+00
1.8	5.58E+00
1.801	1.20E+01
1.802	8.78E+00
1.803	2.37E+00
1.804	1.57E+00
1.805	8.78E+00
1.806	7.98E+00
1.807	5.58E+00
1.808	2.37E+00
1.809	3.97E+00
1.81	7.18E+00
1.811	7.98E+00
1.812	3.97E+00
1.813	4.77E+00
1.814	5.58E+00
1.815	7.98E+00
1.816	5.58E+00
1.817	7.98E+00
1.818	6.38E+00
1.819	2.37E+00
1.82	7.18E+00
1.821	5.58E+00
1.822	7.98E+00
1.823	3.97E+00
1.824	7.18E+00
1.825	7.18E+00
1.826	6.38E+00
1.827	8.78E+00
1.828	7.18E+00
1.829	1.28E+01
1.83	4.77E+00
1.831	3.97E+00
1.832	7.98E+00
1.833	5.58E+00
1.834	9.58E+00
1.835	3.97E+00
1.836	3.17E+00
1.837	7.18E+00
1.838	6.38E+00
1.839	6.38E+00
1.84	7.18E+00
1.841	3.17E+00
1.842	6.38E+00
1.843	3.97E+00
1.844	6.38E+00
1.845	7.18E+00
1.846	8.78E+00
1.847	3.97E+00
1.848	7.18E+00
1.849	6.38E+00
1.85	2.37E+00
1.851	5.58E+00
1.852	3.97E+00
1.853	7.98E+00
1.854	5.58E+00
1.855	7.18E+00
1.856	3.17E+00
1.857	5.58E+00
1.858	1.57E+00
1.859	3.17E+00
1.86	7.18E+00
1.861	5.58E+00
1.862	3.17E+00
1.863	3.97E+00
1.864	3.17E+00
1.865	6.38E+00
1.866	4.77E+00
1.867	7.98E+00
1.868	2.37E+00
1.869	6.38E+00
1.87	3.17E+00
1.871	7.98E+00
1.872	6.38E+00
1.873	7.98E+00
1.874	5.58E+00
1.875	5.58E+00
1.876	6.38E+00
1.877	7.98E+00
1.878	5.58E+00
1.879	7.98E+00
1.88	9.58E+00
1.881	3.17E+00
1.882	4.77E+00
1.883	7.98E+00
1.884	6.38E+00
1.885	7.18E+00
1.886	4.77E+00
1.887	4.77E+00
1.888	6.38E+00
1.889	4.77E+00
1.89	7.98E+00
1.891	7.18E+00
1.892	4.77E+00
1.893	4.77E+00
1.894	4.77E+00
1.895	4.77E+00
1.896	6.38E+00
1.897	7.98E+00
1.898	3.97E+00
1.899	6.38E+00
1.9	5.58E+00
1.901	2.37E+00
1.902	4.77E+00
1.903	7.98E+00
1.904	8.78E+00
1.905	6.38E+00
1.906	5.58E+00
1.907	3.17E+00
1.908	8.78E+00
1.909	5.58E+00
1.91	4.77E+00
1.911	6.38E+00
1.912	5.58E+00
1.913	5.58E+00
1.914	7.66E-01
1.915	5.58E+00
1.916	7.18E+00
1.917	8.78E+00
1.918	7.98E+00
1.919	7.18E+00
1.92	6.38E+00
1.921	1.57E+00
1.922	6.38E+00
1.923	8.78E+00
1.924	6.38E+00
1.925	6.38E+00
1.926	6.38E+00
1.927	8.78E+00
1.928	6.38E+00
1.929	7.18E+00
1.93	5.58E+00
1.931	1.36E+01
1.932	7.98E+00
1.933	3.97E+00
1.934	8.78E+00
1.935	5.58E+00
1.936	1.04E+01
1.937	5.58E+00
1.938	7.18E+00
1.939	4.77E+00
1.94	1.12E+01
1.941	3.97E+00
1.942	4.77E+00
1.943	6.38E+00
1.944	7.98E+00
1.945	5.58E+00
1.946	7.98E+00
1.947	6.38E+00
1.948	8.78E+00
1.949	7.98E+00
1.95	8.78E+00
1.951	7.98E+00
1.952	3.17E+00
1.953	4.77E+00
1.954	3.17E+00
1.955	3.97E+00
1.956	5.58E+00
1.957	6.38E+00
1.958	7.18E+00
1.959	7.98E+00
1.96	2.37E+00
1.961	3.97E+00
1.962	5.58E+00
1.963	2.37E+00
1.964	5.58E+00
1.965	1.28E+01
1.966	4.77E+00
1.967	4.77E+00
1.968	2.37E+00
1.969	2.37E+00
1.97	4.77E+00
1.971	7.18E+00
1.972	7.18E+00
1.973	3.17E+00
1.974	7.98E+00
1.975	6.38E+00
1.976	4.77E+00
1.977	5.58E+00
1.978	7.98E+00
1.979	7.98E+00
1.98	4.77E+00
1.981	7.98E+00
1.982	6.38E+00
1.983	8.78E+00
1.984	6.38E+00
1.985	1.12E+01
1.986	7.98E+00
1.987	5.58E+00
1.988	4.77E+00
1.989	3.17E+00
1.99	6.38E+00
1.991	5.58E+00
1.992	5.58E+00
1.993	3.97E+00
1.994	6.38E+00
1.995	9.58E+00
1.996	3.17E+00
1.997	3.97E+00
1.998	4.77E+00
1.999	7.98E+00
2	6.38E+00
2.001	3.17E+00
2.002	1.04E+01
2.003	3.17E+00
2.004	4.77E+00
2.005	5.58E+00
2.006	3.17E+00
2.007	5.58E+00
2.008	3.17E+00
2.009	7.98E+00
2.01	3.17E+00
2.011	8.78E+00
2.012	6.38E+00
2.013	4.77E+00
2.014	7.98E+00
2.015	8.78E+00
2.016	8.78E+00
2.017	3.97E+00
2.018	5.58E+00
2.019	5.58E+00
2.02	6.38E+00
2.021	7.98E+00
2.022	5.58E+00
2.023	7.66E-01
2.024	1.20E+01
2.025	5.58E+00
2.026	4.77E+00
2.027	5.58E+00
2.028	6.38E+00
2.029	6.38E+00
2.03	5.58E+00
2.031	6.38E+00
2.032	8.78E+00
2.033	1.12E+01
2.034	5.58E+00
2.035	3.97E+00
2.036	5.58E+00
2.037	8.78E+00
2.038	3.97E+00
2.039	7.18E+00
2.04	8.78E+00
2.041	8.78E+00
2.042	6.38E+00
2.043	3.97E+00
2.044	7.18E+00
2.045	6.38E+00
2.046	1.57E+00
2.047	4.77E+00
2.048	3.17E+00
2.049	5.58E+00
2.05	3.17E+00
2.051	3.17E+00
2.052	6.38E+00
2.053	6.38E+00
2.054	7.18E+00
2.055	5.58E+00
2.056	4.77E+00
2.057	7.98E+00
2.058	7.98E+00
2.059	6.38E+00
2.06	3.97E+00
2.061	3.17E+00
2.062	3.17E+00
2.063	6.38E+00
2.064	3.17E+00
2.065	3.97E+00
2.066	5.58E+00
2.067	5.58E+00
2.068	5.58E+00
2.069	1.57E+00
2.07	2.37E+00
2.071	5.58E+00
2.072	3.17E+00
2.073	3.17E+00
2.074	-3.57E-02
2.075	5.58E+00
2.076	6.38E+00
2.077	4.77E+00
2.078	7.18E+00
2.079	2.37E+00
2.08	3.97E+00
2.081	7.18E+00
2.082	3.97E+00
2.083	4.77E+00
2.084	5.58E+00
2.085	4.77E+00
2.086	5.58E+00
2.087	6.38E+00
2.088	5.58E+00
2.089	5.58E+00
2.09	7.18E+00
2.091	3.17E+00
2.092	1.57E+00
2.093	7.98E+00
2.094	6.38E+00
2.095	6.38E+00
2.096	3.17E+00
2.097	7.98E+00
2.098	8.78E+00
2.099	6.38E+00
2.1	8.78E+00
2.101	6.38E+00
2.102	8.78E+00
2.103	8.78E+00
2.104	7.98E+00
2.105	9.58E+00
2.106	7.18E+00
2.107	7.18E+00
2.108	3.97E+00
2.109	3.97E+00
2.11	6.38E+00
2.111	7.18E+00
2.112	3.97E+00
2.113	3.17E+00
2.114	2.37E+00
2.115	6.38E+00
2.116	5.58E+00
2.117	7.18E+00
2.118	5.58E+00
2.119	4.77E+00
2.12	5.58E+00
2.121	3.17E+00
2.122	8.78E+00
2.123	3.97E+00
2.124	3.97E+00
2.125	5.58E+00
2.126	3.97E+00
2.127	6.38E+00
2.128	4.77E+00
2.129	9.58E+00
2.13	3.17E+00
2.131	3.17E+00
2.132	3.17E+00
2.133	3.17E+00
2.134	5.58E+00
2.135	3.97E+00
2.136	4.77E+00
2.137	6.38E+00
2.138	6.38E+00
2.139	4.77E+00
2.14	5.58E+00
2.141	3.97E+00
2.142	1.57E+00
2.143	6.38E+00
2.144	6.38E+00
2.145	3.17E+00
2.146	7.98E+00
2.147	6.38E+00
2.148	6.38E+00
2.149	5.58E+00
2.15	5.58E+00
2.151	4.77E+00
2.152	6.38E+00
2.153	1.57E+00
2.154	3.97E+00
2.155	7.98E+00
2.156	5.58E+00
2.157	4.77E+00
2.158	4.77E+00
2.159	4.77E+00
2.16	7.18E+00
2.161	5.58E+00
2.162	3.97E+00
2.163	5.58E+00
2.164	3.97E+00
2.165	7.18E+00
2.166	6.38E+00
2.167	6.38E+00
2.168	4.77E+00
2.169	4.77E+00
2.17	3.17E+00
2.171	3.17E+00
2.172	3.17E+00
2.173	5.58E+00
2.174	6.38E+00
2.175	5.58E+00
2.176	2.37E+00
2.177	6.38E+00
2.178	4.77E+00
2.179	6.38E+00
2.18	3.17E+00
2.181	6.38E+00
2.182	3.17E+00
2.183	5.58E+00
2.184	6.38E+00
2.185	7.98E+00
2.186	4.77E+00
2.187	3.97E+00
2.188	6.38E+00
2.189	7.18E+00
2.19	7.18E+00
2.191	6.38E+00
2.192	2.37E+00
2.193	1.04E+01
2.194	7.18E+00
2.195	6.38E+00
2.196	7.98E+00
2.197	3.17E+00
2.198	8.78E+00
2.199	4.77E+00
2.2	4.77E+00
2.201	4.77E+00
2.202	3.97E+00
2.203	4.77E+00
2.204	5.58E+00
2.205	8.78E+00
2.206	2.37E+00
2.207	3.97E+00
2.208	6.38E+00
2.209	6.38E+00
2.21	3.17E+00
2.211	9.58E+00
2.212	3.97E+00
2.213	6.38E+00
2.214	6.38E+00
2.215	3.17E+00
2.216	5.58E+00
2.217	8.78E+00
2.218	3.97E+00
2.219	6.38E+00
2.22	4.77E+00
2.221	4.77E+00
2.222	8.78E+00
2.223	5.58E+00
2.224	7.98E+00
2.225	3.97E+00
2.226	3.17E+00
2.227	7.98E+00
2.228	6.38E+00
2.229	6.38E+00
2.23	6.38E+00
2.231	7.98E+00
2.232	3.97E+00
2.233	2.37E+00
2.234	4.77E+00
2.235	3.97E+00
2.236	5.58E+00
2.237	6.38E+00
2.238	7.18E+00
2.239	3.97E+00
2.24	7.98E+00
2.241	9.58E+00
2.242	6.38E+00
2.243	5.58E+00
2.244	7.18E+00
2.245	5.58E+00
2.246	4.77E+00
2.247	6.38E+00
2.248	1.57E+00
2.249	7.18E+00
2.25	1.57E+00
2.251	7.18E+00
2.252	2.37E+00
2.253	7.18E+00
2.254	3.17E+00
2.255	6.38E+00
2.256	8.78E+00
2.257	6.38E+00
2.258	3.97E+00
2.259	4.77E+00
2.26	3.97E+00
2.261	-3.57E-02
2.262	5.58E+00
2.263	5.58E+00
2.264	7.98E+00
2.265	7.18E+00
2.266	7.18E+00
2.267	3.17E+00
2.268	5.58E+00
2.269	6.38E+00
2.27	5.58E+00
2.271	3.17E+00
2.272	8.78E+00
2.273	7.18E+00
2.274	7.18E+00
2.275	5.58E+00
2.276	6.38E+00
2.277	5.58E+00
2.278	2.37E+00
2.279	7.18E+00
2.28	4.77E+00
2.281	6.38E+00
2.282	3.97E+00
2.283	1.12E+01
2.284	2.37E+00
2.285	3.17E+00
2.286	4.77E+00
2.287	4.77E+00
2.288	6.38E+00
2.289	9.58E+00
2.29	6.38E+00
2.291	7.98E+00
2.292	6.38E+00
2.293	6.38E+00
2.294	6.38E+00
2.295	1.04E+01
2.296	3.97E+00
2.297	4.77E+00
2.298	7.98E+00
2.299	6.38E+00
2.3	7.98E+00
2.301	7.18E+00
2.302	6.38E+00
2.303	1.12E+01
2.304	3.17E+00
2.305	5.58E+00
2.306	7.18E+00
2.307	4.77E+00
2.308	3.17E+00
2.309	7.18E+00
2.31	8.78E+00
2.311	7.18E+00
2.312	6.38E+00
2.313	6.38E+00
2.314	5.58E+00
2.315	3.97E+00
2.316	5.58E+00
2.317	2.37E+00
2.318	7.98E+00
2.319	6.38E+00
2.32	6.38E+00
2.321	4.77E+00
2.322	4.77E+00
2.323	8.78E+00
2.324	5.58E+00
2.325	7.18E+00
2.326	9.58E+00
2.327	1.28E+01
2.328	7.18E+00
2.329	9.58E+00
2.33	7.98E+00
2.331	7.18E+00
2.332	6.38E+00
2.333	8.78E+00
2.334	1.20E+01
2.335	4.77E+00
2.336	5.58E+00
2.337	4.77E+00
2.338	7.98E+00
2.339	2.37E+00
2.34	4.77E+00
2.341	7.18E+00
2.342	2.37E+00
2.343	5.58E+00
2.344	4.77E+00
2.345	8.78E+00
2.346	9.58E+00
2.347	6.38E+00
2.348	7.18E+00
2.349	8.78E+00
2.35	7.18E+00
2.351	7.18E+00
2.352	3.17E+00
2.353	4.77E+00
2.354	7.98E+00
2.355	4.77E+00
2.356	1.04E+01
2.357	4.77E+00
2.358	1.12E+01
2.359	6.38E+00
2.36	7.18E+00
2.361	6.38E+00
2.362	5.58E+00
2.363	9.58E+00
2.364	7.18E+00
2.365	8.78E+00
2.366	2.37E+00
2.367	1.04E+01
2.368	7.18E+00
2.369	5.58E+00
2.37	5.58E+00
2.371	6.38E+00
2.372	4.77E+00
2.373	4.77E+00
2.374	3.97E+00
2.375	5.58E+00
2.376	7.98E+00
2.377	3.17E+00
2.378	5.58E+00
2.379	6.38E+00
2.38	6.38E+00
2.381	5.58E+00
2.382	9.58E+00
2.383	9.58E+00
2.384	6.38E+00
2.385	6.38E+00
2.386	7.98E+00
2.387	5.58E+00
2.388	2.37E+00
2.389	6.38E+00
2.39	8.78E+00
2.391	7.18E+00
2.392	5.58E+00
2.393	9.58E+00
2.394	5.58E+00
2.395	5.58E+00
2.396	6.38E+00
2.397	7.18E+00
2.398	4.77E+00
2.399	3.97E+00
2.4	6.38E+00
2.401	3.97E+00
2.402	3.17E+00
2.403	7.18E+00
2.404	7.98E+00
2.405	4.77E+00
2.406	7.18E+00
2.407	7.18E+00
2.408	5.58E+00
2.409	7.98E+00
2.41	7.18E+00
2.411	5.58E+00
2.412	8.78E+00
2.413	1.57E+00
2.414	7.18E+00
2.415	5.58E+00
2.416	1.04E+01
2.417	6.38E+00
2.418	5.58E+00
2.419	4.77E+00
2.42	7.98E+00
2.421	6.38E+00
2.422	4.77E+00
2.423	3.17E+00
2.424	6.38E+00
2.425	1.04E+01
2.426	5.58E+00
2.427	9.58E+00
2.428	6.38E+00
2.429	7.18E+00
2.43	5.58E+00
2.431	8.78E+00
2.432	3.17E+00
2.433	2.37E+00
2.434	6.38E+00
2.435	5.58E+00
2.436	8.78E+00
2.437	6.38E+00
2.438	4.77E+00
2.439	6.38E+00
2.44	5.58E+00
2.441	6.38E+00
2.442	6.38E+00
2.443	7.98E+00
2.444	7.98E+00
2.445	7.98E+00
2.446	6.38E+00
2.447	4.77E+00
2.448	7.98E+00
2.449	7.18E+00
2.45	9.58E+00
2.451	5.58E+00
2.452	6.38E+00
2.453	6.38E+00
2.454	7.18E+00
2.455	6.38E+00
2.456	3.97E+00
2.457	4.77E+00
2.458	7.18E+00
2.459	6.38E+00
2.46	7.18E+00
2.461	6.38E+00
2.462	2.37E+00
2.463	4.77E+00
2.464	4.77E+00
2.465	1.04E+01
2.466	7.98E+00
2.467	3.17E+00
2.468	7.98E+00
2.469	6.38E+00
2.47	1.04E+01
2.471	6.38E+00
2.472	7.18E+00
2.473	4.77E+00
2.474	4.77E+00
2.475	5.58E+00
2.476	6.38E+00
2.477	7.66E-01
2.478	2.37E+00
2.479	8.78E+00
2.48	7.18E+00
2.481	4.77E+00
2.482	1.04E+01
2.483	3.97E+00
2.484	7.98E+00
2.485	1.12E+01
2.486	7.98E+00
2.487	6.38E+00
2.488	3.97E+00
2.489	3.97E+00
2.49	6.38E+00
2.491	1.04E+01
2.492	4.77E+00
2.493	3.97E+00
2.494	4.77E+00
2.495	7.18E+00
2.496	6.38E+00
2.497	5.58E+00
2.498	7.98E+00
2.499	5.58E+00
2.5	8.78E+00
2.501	3.17E+00
2.502	3.17E+00
2.503	6.38E+00
2.504	5.58E+00
2.505	7.98E+00
2.506	5.58E+00
2.507	4.77E+00
2.508	5.58E+00
2.509	4.77E+00
2.51	5.58E+00
2.511	4.77E+00
2.512	4.77E+00
2.513	6.38E+00
2.514	5.58E+00
2.515	7.98E+00
2.516	7.98E+00
2.517	6.38E+00
2.518	6.38E+00
2.519	4.77E+00
2.52	4.77E+00
2.521	3.97E+00
2.522	4.77E+00
2.523	1.57E+00
2.524	7.98E+00
2.525	8.78E+00
2.526	4.77E+00
2.527	4.77E+00
2.528	3.17E+00
2.529	4.77E+00
2.53	7.18E+00
2.531	7.66E-01
2.532	5.58E+00
2.533	7.98E+00
2.534	7.18E+00
2.535	5.58E+00
2.536	5.58E+00
2.537	7.98E+00
2.538	6.38E+00
2.539	5.58E+00
2.54	7.98E+00
2.541	7.98E+00
2.542	7.98E+00
2.543	3.17E+00
2.544	8.78E+00
2.545	4.77E+00
2.546	7.98E+00
2.547	7.18E+00
2.548	7.18E+00
2.549	3.97E+00
2.55	7.18E+00
2.551	7.18E+00
2.552	7.18E+00
2.553	7.18E+00
2.554	7.98E+00
2.555	7.98E+00
2.556	7.18E+00
2.557	1.12E+01
2.558	7.98E+00
2.559	7.18E+00
2.56	7.18E+00
2.561	9.58E+00
2.562	1.57E+00
2.563	7.98E+00
2.564	6.38E+00
2.565	3.97E+00
2.566	7.18E+00
2.567	4.77E+00
2.568	5.58E+00
2.569	8.78E+00
2.57	7.18E+00
2.571	3.97E+00
2.572	3.97E+00
2.573	5.58E+00
2.574	5.58E+00
2.575	1.12E+01
2.576	6.38E+00
2.577	6.38E+00
2.578	7.98E+00
2.579	7.18E+00
2.58	6.38E+00
2.581	5.58E+00
2.582	1.04E+01
2.583	1.04E+01
2.584	3.17E+00
2.585	7.98E+00
2.586	6.38E+00
2.587	6.38E+00
2.588	9.58E+00
2.589	6.38E+00
2.59	3.97E+00
2.591	7.98E+00
2.592	3.17E+00
2.593	8.78E+00
2.594	7.98E+00
2.595	1.04E+01
2.596	4.77E+00
2.597	6.38E+00
2.598	7.18E+00
2.599	4.77E+00
2.6	5.58E+00
2.601	6.38E+00
2.602	7.18E+00
2.603	6.38E+00
2.604	8.78E+00
2.605	3.97E+00
2.606	7.18E+00
2.607	2.37E+00
2.608	7.98E+00
2.609	5.58E+00
2.61	3.97E+00
2.611	5.58E+00
2.612	7.98E+00
2.613	8.78E+00
2.614	4.77E+00
2.615	6.38E+00
2.616	4.77E+00
2.617	9.58E+00
2.618	4.77E+00
2.619	2.37E+00
2.62	7.98E+00
2.621	3.97E+00
2.622	3.97E+00
2.623	6.38E+00
2.624	6.38E+00
2.625	7.98E+00
2.626	3.97E+00
2.627	7.18E+00
2.628	5.58E+00
2.629	3.17E+00
2.63	2.37E+00
2.631	6.38E+00
2.632	1.57E+00
2.633	5.58E+00
2.634	4.77E+00
2.635	2.37E+00
2.636	7.18E+00
2.637	4.77E+00
2.638	6.38E+00
2.639	5.58E+00
2.64	3.97E+00
2.641	3.17E+00
2.642	8.78E+00
2.643	4.77E+00
2.644	7.98E+00
2.645	8.78E+00
2.646	3.17E+00
2.647	5.58E+00
2.648	4.77E+00
2.649	4.77E+00
2.65	1.57E+00
2.651	6.38E+00
2.652	4.77E+00
2.653	3.97E+00
2.654	7.18E+00
2.655	6.38E+00
2.656	3.97E+00
2.657	3.97E+00
2.658	3.17E+00
2.659	8.78E+00
2.66	8.78E+00
2.661	4.77E+00
2.662	7.18E+00
2.663	5.58E+00
2.664	3.97E+00
2.665	8.78E+00
2.666	5.58E+00
2.667	7.98E+00
2.668	5.58E+00
2.669	5.58E+00
2.67	9.58E+00
2.671	6.38E+00
2.672	8.78E+00
2.673	3.97E+00
2.674	1.04E+01
2.675	7.98E+00
2.676	8.78E+00
2.677	7.18E+00
2.678	8.78E+00
2.679	4.77E+00
2.68	5.58E+00
2.681	8.78E+00
2.682	4.77E+00
2.683	8.78E+00
2.684	8.78E+00
2.685	4.77E+00
2.686	8.78E+00
2.687	7.18E+00
2.688	4.77E+00
2.689	6.38E+00
2.69	4.77E+00
2.691	6.38E+00
2.692	5.58E+00
2.693	1.04E+01
2.694	4.77E+00
2.695	3.97E+00
2.696	4.77E+00
2.697	4.77E+00
2.698	2.37E+00
2.699	3.17E+00
2.7	4.77E+00
2.701	5.58E+00
2.702	5.58E+00
2.703	4.77E+00
2.704	5.58E+00
2.705	7.98E+00
2.706	8.78E+00
2.707	2.37E+00
2.708	5.58E+00
2.709	7.98E+00
2.71	1.57E+00
2.711	4.77E+00
2.712	3.17E+00
2.713	3.97E+00
2.714	4.77E+00
2.715	7.18E+00
2.716	9.58E+00
2.717	1.57E+00
2.718	4.77E+00
2.719	7.18E+00
2.72	3.17E+00
2.721	4.77E+00
2.722	5.58E+00
2.723	6.38E+00
2.724	3.17E+00
2.725	2.37E+00
2.726	5.58E+00
2.727	6.38E+00
2.728	6.38E+00
2.729	2.37E+00
2.73	5.58E+00
2.731	6.38E+00
2.732	8.78E+00
2.733	4.77E+00
2.734	4.77E+00
2.735	4.77E+00
2.736	4.77E+00
2.737	6.38E+00
2.738	5.58E+00
2.739	6.38E+00
2.74	3.97E+00
2.741	7.18E+00
2.742	7.18E+00
2.743	7.18E+00
2.744	3.97E+00
2.745	6.38E+00
2.746	6.38E+00
2.747	6.38E+00
2.748	5.58E+00
2.749	5.58E+00
2.75	5.58E+00
2.751	7.98E+00
2.752	6.38E+00
2.753	8.78E+00
2.754	6.38E+00
2.755	7.18E+00
2.756	1.12E+01
2.757	4.77E+00
2.758	8.78E+00
2.759	6.38E+00
2.76	7.98E+00
2.761	6.38E+00
2.762	3.17E+00
2.763	7.18E+00
2.764	6.38E+00
2.765	7.18E+00
2.766	6.38E+00
2.767	7.98E+00
2.768	7.18E+00
2.769	7.98E+00
2.77	5.58E+00
2.771	5.58E+00
2.772	2.37E+00
2.773	5.58E+00
2.774	3.17E+00
2.775	6.38E+00
2.776	7.18E+00
2.777	6.38E+00
2.778	5.58E+00
2.779	7.98E+00
2.78	4.77E+00
2.781	6.38E+00
2.782	4.77E+00
2.783	7.98E+00
2.784	6.38E+00
2.785	3.97E+00
2.786	3.97E+00
2.787	6.38E+00
2.788	3.17E+00
2.789	5.58E+00
2.79	6.38E+00
2.791	6.38E+00
2.792	3.17E+00
2.793	3.17E+00
2.794	3.17E+00
2.795	6.38E+00
2.796	3.97E+00
2.797	2.37E+00
2.798	1.57E+00
2.799	6.38E+00
2.8	4.77E+00
2.801	4.77E+00
2.802	4.77E+00
2.803	8.78E+00
2.804	6.38E+00
2.805	4.77E+00
2.806	6.38E+00
2.807	7.66E-01
2.808	5.58E+00
2.809	-3.57E-02
2.81	6.38E+00
2.811	7.18E+00
2.812	4.77E+00
2.813	7.18E+00
2.814	3.97E+00
2.815	7.18E+00
2.816	5.58E+00
2.817	5.58E+00
2.818	4.77E+00
2.819	8.78E+00
2.82	4.77E+00
2.821	6.38E+00
2.822	5.58E+00
2.823	7.98E+00
2.824	4.77E+00
2.825	3.97E+00
2.826	1.57E+00
2.827	3.17E+00
2.828	7.66E-01
2.829	4.77E+00
2.83	9.58E+00
2.831	7.18E+00
2.832	6.38E+00
2.833	8.78E+00
2.834	7.18E+00
2.835	7.98E+00
2.836	4.77E+00
2.837	3.97E+00
2.838	4.77E+00
2.839	7.98E+00
2.84	7.18E+00
2.841	2.37E+00
2.842	6.38E+00
2.843	6.38E+00
2.844	1.57E+00
2.845	3.97E+00
2.846	3.17E+00
2.847	6.38E+00
2.848	6.38E+00
2.849	4.77E+00
2.85	6.38E+00
2.851	7.18E+00
2.852	3.97E+00
2.853	7.18E+00
2.854	1.57E+00
2.855	7.18E+00
2.856	3.17E+00
2.857	5.58E+00
2.858	3.97E+00
2.859	8.78E+00
2.86	4.77E+00
2.861	2.37E+00
2.862	5.58E+00
2.863	6.38E+00
2.864	6.38E+00
2.865	7.18E+00
2.866	3.17E+00
2.867	5.58E+00
2.868	5.58E+00
2.869	3.17E+00
2.87	3.97E+00
2.871	6.38E+00
2.872	8.78E+00
2.873	8.78E+00
2.874	7.18E+00
2.875	6.38E+00
2.876	1.57E+00
2.877	2.37E+00
2.878	3.17E+00
2.879	3.97E+00
2.88	7.66E-01
2.881	5.58E+00
2.882	6.38E+00
2.883	7.98E+00
2.884	3.97E+00
2.885	1.12E+01
2.886	7.18E+00
2.887	8.78E+00
2.888	5.58E+00
2.889	3.97E+00
2.89	3.17E+00
2.891	3.17E+00
2.892	5.58E+00
2.893	3.97E+00
2.894	3.17E+00
2.895	6.38E+00
2.896	6.38E+00
2.897	5.58E+00
2.898	3.97E+00
2.899	2.37E+00
2.9	5.58E+00
2.901	7.18E+00
2.902	5.58E+00
2.903	2.37E+00
2.904	6.38E+00
2.905	6.38E+00
2.906	3.97E+00
2.907	5.58E+00
2.908	9.58E+00
2.909	3.17E+00
2.91	5.58E+00
2.911	7.18E+00
2.912	-8.37E-01
2.913	7.98E+00
2.914	5.58E+00
2.915	5.58E+00
2.916	3.97E+00
2.917	5.58E+00
2.918	4.77E+00
2.919	7.18E+00
2.92	6.38E+00
2.921	5.58E+00
2.922	7.18E+00
2.923	8.78E+00
2.924	7.18E+00
2.925	4.77E+00
2.926	4.77E+00
2.927	7.18E+00
2.928	2.37E+00
2.929	9.58E+00
2.93	7.18E+00
2.931	8.78E+00
2.932	5.58E+00
2.933	3.17E+00
2.934	6.38E+00
2.935	8.78E+00
2.936	6.38E+00
2.937	4.77E+00
2.938	5.58E+00
2.939	7.18E+00
2.94	5.58E+00
2.941	8.78E+00
2.942	7.98E+00
2.943	7.98E+00
2.944	7.98E+00
2.945	5.58E+00
2.946	4.77E+00
2.947	7.98E+00
2.948	7.98E+00
2.949	7.18E+00
2.95	7.66E-01
2.951	4.77E+00
2.952	6.38E+00
2.953	6.38E+00
2.954	3.97E+00
2.955	6.38E+00
2.956	5.58E+00
2.957	7.98E+00
2.958	4.77E+00
2.959	8.78E+00
2.96	3.97E+00
2.961	6.38E+00
2.962	4.77E+00
2.963	7.66E-01
2.964	5.58E+00
2.965	5.58E+00
2.966	7.18E+00
2.967	5.58E+00
2.968	4.77E+00
2.969	3.97E+00
2.97	4.77E+00
2.971	6.38E+00
2.972	5.58E+00
2.973	3.17E+00
2.974	6.38E+00
2.975	2.37E+00
2.976	6.38E+00
2.977	-3.57E-02
2.978	7.98E+00
2.979	6.38E+00
2.98	3.97E+00
2.981	6.38E+00
2.982	4.77E+00
2.983	5.58E+00
2.984	3.97E+00
2.985	5.58E+00
2.986	6.38E+00
2.987	7.66E-01
2.988	2.37E+00
2.989	6.38E+00
2.99	4.77E+00
2.991	5.58E+00
2.992	5.58E+00
2.993	4.77E+00
2.994	3.17E+00
2.995	5.58E+00
2.996	2.37E+00
2.997	1.57E+00
2.998	7.98E+00
2.999	2.37E+00
3	2.37E+00
3.001	3.97E+00
3.002	6.38E+00
3.003	3.97E+00
3.004	7.98E+00
3.005	1.57E+00
3.006	4.77E+00
3.007	3.97E+00
3.008	5.58E+00
3.009	1.04E+01
3.01	5.58E+00
3.011	5.58E+00
3.012	3.17E+00
3.013	3.17E+00
3.014	7.98E+00
3.015	3.97E+00
3.016	3.17E+00
3.017	3.17E+00
3.018	2.37E+00
3.019	7.18E+00
3.02	7.98E+00
3.021	8.78E+00
3.022	3.17E+00
3.023	3.17E+00
3.024	4.77E+00
3.025	4.77E+00
3.026	3.97E+00
3.027	7.98E+00
3.028	6.38E+00
3.029	3.17E+00
3.03	7.18E+00
3.031	6.38E+00
3.032	4.77E+00
3.033	2.37E+00
3.034	3.97E+00
3.035	3.17E+00
3.036	1.57E+00
3.037	5.58E+00
3.038	7.18E+00
3.039	5.58E+00
3.04	5.58E+00
3.041	6.38E+00
3.042	9.58E+00
3.043	7.18E+00
3.044	5.58E+00
3.045	7.66E-01
3.046	1.57E+00
3.047	6.38E+00
3.048	1.57E+00
3.049	4.77E+00
3.05	6.38E+00
3.051	3.97E+00
3.052	7.18E+00
3.053	3.17E+00
3.054	6.38E+00
3.055	5.58E+00
3.056	3.17E+00
3.057	6.38E+00
3.058	8.78E+00
3.059	7.98E+00
3.06	7.18E+00
3.061	5.58E+00
3.062	1.04E+01
3.063	8.78E+00
3.064	3.97E+00
3.065	7.18E+00
3.066	5.58E+00
3.067	1.57E+00
3.068	6.38E+00
3.069	3.17E+00
3.07	7.98E+00
3.071	3.97E+00
3.072	4.77E+00
3.073	4.77E+00
3.074	7.98E+00
3.075	8.78E+00
3.076	6.38E+00
3.077	4.77E+00
3.078	3.17E+00
3.079	4.77E+00
3.08	6.38E+00
3.081	7.98E+00
3.082	4.77E+00
3.083	2.37E+00
3.084	5.58E+00
3.085	2.37E+00
3.086	8.78E+00
3.087	7.98E+00
3.088	-1.64E+00
3.089	5.58E+00
3.09	-1.64E+00
3.091	4.77E+00
3.092	1.12E+01
3.093	7.98E+00
3.094	3.17E+00
3.095	6.38E+00
3.096	3.97E+00
3.097	3.17E+00
3.098	2.37E+00
3.099	6.38E+00
3.1	7.98E+00
3.101	5.58E+00
3.102	5.58E+00
3.103	3.97E+00
3.104	6.38E+00
3.105	5.58E+00
3.106	3.97E+00
3.107	4.77E+00
3.108	9.58E+00
3.109	6.38E+00
3.11	5.58E+00
3.111	7.98E+00
3.112	7.18E+00
3.113	3.97E+00
3.114	6.38E+00
3.115	3.97E+00
3.116	7.18E+00
3.117	6.38E+00
3.118	4.77E+00
3.119	3.17E+00
3.12	7.18E+00
3.121	6.38E+00
3.122	6.38E+00
3.123	7.18E+00
3.124	8.78E+00
3.125	7.18E+00
3.126	5.58E+00
3.127	7.18E+00
3.128	7.18E+00
3.129	5.58E+00
3.13	6.38E+00
3.131	5.58E+00
3.132	9.58E+00
3.133	1.12E+01
3.134	1.28E+01
3.135	8.78E+00
3.136	8.78E+00
3.137	3.97E+00
3.138	6.38E+00
3.139	9.58E+00
3.14	6.38E+00
3.141	1.28E+01
3.142	8.78E+00
3.143	9.58E+00
3.144	4.77E+00
3.145	5.58E+00
3.146	6.38E+00
3.147	5.58E+00
3.148	7.66E-01
3.149	7.18E+00
3.15	7.18E+00
3.151	7.66E-01
3.152	4.77E+00
3.153	3.97E+00
3.154	4.77E+00
3.155	7.18E+00
3.156	5.58E+00
3.157	6.38E+00
3.158	7.18E+00
3.159	3.97E+00
3.16	9.58E+00
3.161	6.38E+00
3.162	3.17E+00
3.163	5.58E+00
3.164	6.38E+00
3.165	5.58E+00
3.166	7.98E+00
3.167	3.97E+00
3.168	4.77E+00
3.169	3.17E+00
3.17	3.17E+00
3.171	9.58E+00
3.172	8.78E+00
3.173	2.37E+00
3.174	7.18E+00
3.175	6.38E+00
3.176	7.18E+00
3.177	7.98E+00
3.178	7.98E+00
3.179	3.17E+00
3.18	4.77E+00
3.181	7.18E+00
3.182	5.58E+00
3.183	8.78E+00
3.184	7.18E+00
3.185	6.38E+00
3.186	4.77E+00
3.187	4.77E+00
3.188	5.58E+00
3.189	6.38E+00
3.19	9.58E+00
3.191	3.17E+00
3.192	7.98E+00
3.193	6.38E+00
3.194	5.58E+00
3.195	7.18E+00
3.196	3.17E+00
3.197	7.98E+00
3.198	8.78E+00
3.199	3.97E+00
3.2	4.77E+00
3.201	6.38E+00
3.202	4.77E+00
3.203	7.98E+00
3.204	7.18E+00
3.205	7.98E+00
3.206	4.77E+00
3.207	4.77E+00
3.208	4.77E+00
3.209	7.66E-01
3.21	3.17E+00
3.211	5.58E+00
3.212	8.78E+00
3.213	7.18E+00
3.214	6.38E+00
3.215	7.98E+00
3.216	5.58E+00
3.217	7.98E+00
3.218	4.77E+00
3.219	6.38E+00
3.22	4.77E+00
3.221	5.58E+00
3.222	1.12E+01
3.223	9.58E+00
3.224	1.12E+01
3.225	6.38E+00
3.226	9.58E+00
3.227	8.78E+00
3.228	8.78E+00
3.229	7.18E+00
3.23	3.17E+00
3.231	3.97E+00
3.232	7.98E+00
3.233	6.38E+00
3.234	8.78E+00
3.235	4.77E+00
3.236	6.38E+00
3.237	4.77E+00
3.238	7.18E+00
3.239	6.38E+00
3.24	6.38E+00
3.241	7.18E+00
3.242	9.58E+00
3.243	4.77E+00
3.244	3.97E+00
3.245	2.37E+00
3.246	3.17E+00
3.247	4.77E+00
3.248	5.58E+00
3.249	3.97E+00
3.25	4.77E+00
3.251	7.98E+00
3.252	5.58E+00
3.253	3.17E+00
3.254	6.38E+00
3.255	2.37E+00
3.256	6.38E+00
3.257	7.18E+00
3.258	7.18E+00
3.259	4.77E+00
3.26	8.78E+00
3.261	7.98E+00
3.262	8.78E+00
3.263	5.58E+00
3.264	9.58E+00
3.265	3.17E+00
3.266	3.17E+00
3.267	4.77E+00
3.268	6.38E+00
3.269	6.38E+00
3.27	5.58E+00
3.271	8.78E+00
3.272	3.17E+00
3.273	1.20E+01
3.274	3.17E+00
3.275	4.77E+00
3.276	7.18E+00
3.277	6.38E+00
3.278	1.12E+01
3.279	7.18E+00
3.28	7.98E+00
3.281	7.18E+00
3.282	7.98E+00
3.283	7.18E+00
3.284	7.66E-01
3.285	7.18E+00
3.286	6.38E+00
3.287	9.58E+00
3.288	9.58E+00
3.289	4.77E+00
3.29	5.58E+00
3.291	2.37E+00
3.292	7.98E+00
3.293	7.18E+00
3.294	8.78E+00
3.295	7.98E+00
3.296	1.04E+01
3.297	8.78E+00
3.298	8.78E+00
3.299	4.77E+00
3.3	3.97E+00
3.301	5.58E+00
3.302	5.58E+00
3.303	1.04E+01
3.304	7.98E+00
3.305	9.58E+00
3.306	6.38E+00
3.307	4.77E+00
3.308	7.98E+00
3.309	3.17E+00
3.31	1.57E+00
3.311	5.58E+00
3.312	3.97E+00
3.313	3.17E+00
3.314	1.57E+00
3.315	3.97E+00
3.316	7.98E+00
3.317	9.58E+00
3.318	4.77E+00
3.319	3.97E+00
3.32	9.58E+00
3.321	7.98E+00
3.322	7.98E+00
3.323	7.18E+00
3.324	4.77E+00
3.325	6.38E+00
3.326	5.58E+00
3.327	2.37E+00
3.328	4.77E+00
3.329	5.58E+00
3.33	9.58E+00
3.331	6.38E+00
3.332	6.38E+00
3.333	8.78E+00
3.334	2.37E+00
3.335	5.58E+00
3.336	4.77E+00
3.337	-3.57E-02
3.338	6.38E+00
3.339	7.98E+00
3.34	7.18E+00
3.341	3.17E+00
3.342	7.98E+00
3.343	5.58E+00
3.344	5.58E+00
3.345	4.77E+00
3.346	4.77E+00
3.347	5.58E+00
3.348	7.98E+00
3.349	9.58E+00
3.35	4.77E+00
3.351	7.18E+00
3.352	3.17E+00
3.353	8.78E+00
3.354	9.58E+00
3.355	3.97E+00
3.356	9.58E+00
3.357	7.98E+00
3.358	1.44E+01
3.359	6.38E+00
3.36	3.97E+00
3.361	4.77E+00
3.362	6.38E+00
3.363	4.77E+00
3.364	9.58E+00
3.365	8.78E+00
3.366	3.97E+00
3.367	4.77E+00
3.368	6.38E+00
3.369	8.78E+00
3.37	7.98E+00
3.371	7.18E+00
3.372	8.78E+00
3.373	6.38E+00
3.374	3.17E+00
3.375	7.98E+00
3.376	5.58E+00
3.377	6.38E+00
3.378	3.97E+00
3.379	5.58E+00
3.38	7.18E+00
3.381	7.18E+00
3.382	4.77E+00
3.383	6.38E+00
3.384	8.78E+00
3.385	4.77E+00
3.386	7.98E+00
3.387	7.98E+00
3.388	5.58E+00
3.389	5.58E+00
3.39	7.18E+00
3.391	3.97E+00
3.392	4.77E+00
3.393	7.98E+00
3.394	7.98E+00
3.395	5.58E+00
3.396	5.58E+00
3.397	5.58E+00
3.398	4.77E+00
3.399	6.38E+00
3.4	7.98E+00
3.401	3.97E+00
3.402	3.97E+00
3.403	3.97E+00
3.404	3.17E+00
3.405	5.58E+00
3.406	3.97E+00
3.407	7.18E+00
3.408	7.98E+00
3.409	7.98E+00
3.41	3.17E+00
3.411	6.38E+00
3.412	4.77E+00
3.413	6.38E+00
3.414	3.97E+00
3.415	6.38E+00
3.416	9.58E+00
3.417	6.38E+00
3.418	5.58E+00
3.419	3.97E+00
3.42	4.77E+00
3.421	7.18E+00
3.422	7.18E+00
3.423	8.78E+00
3.424	4.77E+00
3.425	7.98E+00
3.426	5.58E+00
3.427	5.58E+00
3.428	5.58E+00
3.429	3.97E+00
3.43	7.98E+00
3.431	4.77E+00
3.432	3.17E+00
3.433	2.37E+00
3.434	7.98E+00
3.435	8.78E+00
3.436	6.38E+00
3.437	6.38E+00
3.438	7.18E+00
3.439	4.77E+00
3.44	8.78E+00
3.441	7.98E+00
3.442	3.97E+00
3.443	3.97E+00
3.444	7.98E+00
3.445	7.98E+00
3.446	7.98E+00
3.447	2.37E+00
3.448	5.58E+00
3.449	6.38E+00
3.45	3.97E+00
3.451	3.17E+00
3.452	9.58E+00
3.453	4.77E+00
3.454	6.38E+00
3.455	7.98E+00
3.456	7.98E+00
3.457	9.58E+00
3.458	4.77E+00
3.459	3.97E+00
3.46	7.98E+00
3.461	8.78E+00
3.462	8.78E+00
3.463	5.58E+00
3.464	5.58E+00
3.465	3.97E+00
3.466	4.77E+00
3.467	9.58E+00
3.468	4.77E+00
3.469	3.97E+00
3.47	-3.57E-02
3.471	5.58E+00
3.472	3.17E+00
3.473	3.17E+00
3.474	7.18E+00
3.475	6.38E+00
3.476	-3.57E-02
3.477	7.18E+00
3.478	4.77E+00
3.479	6.38E+00
3.48	3.97E+00
3.481	7.18E+00
3.482	2.37E+00
3.483	5.58E+00
3.484	5.58E+00
3.485	6.38E+00
3.486	5.58E+00
3.487	7.98E+00
3.488	5.58E+00
3.489	3.17E+00
3.49	4.77E+00
3.491	6.38E+00
3.492	9.58E+00
3.493	8.78E+00
3.494	7.98E+00
3.495	2.37E+00
3.496	6.38E+00
3.497	5.58E+00
3.498	7.98E+00
3.499	5.58E+00
3.5	4.77E+00
3.501	8.78E+00
3.502	6.38E+00
3.503	1.04E+01
3.504	5.58E+00
3.505	9.58E+00
3.506	7.18E+00
3.507	8.78E+00
3.508	8.78E+00
3.509	7.18E+00
3.51	3.17E+00
3.511	7.98E+00
3.512	4.77E+00
3.513	6.38E+00
3.514	6.38E+00
3.515	7.66E-01
3.516	6.38E+00
3.517	8.78E+00
3.518	7.18E+00
3.519	5.58E+00
3.52	7.18E+00
3.521	7.98E+00
3.522	6.38E+00
3.523	6.38E+00
3.524	9.58E+00
3.525	4.77E+00
3.526	4.77E+00
3.527	6.38E+00
3.528	7.18E+00
3.529	7.98E+00
3.53	5.58E+00
3.531	7.98E+00
3.532	8.78E+00
3.533	4.77E+00
3.534	7.18E+00
3.535	6.38E+00
3.536	6.38E+00
3.537	8.78E+00
3.538	7.98E+00
3.539	3.17E+00
3.54	2.37E+00
3.541	7.18E+00
3.542	2.37E+00
3.543	6.38E+00
3.544	5.58E+00
3.545	7.98E+00
3.546	7.98E+00
3.547	6.38E+00
3.548	7.98E+00
3.549	7.18E+00
3.55	7.98E+00
3.551	8.78E+00
3.552	5.58E+00
3.553	6.38E+00
3.554	7.18E+00
3.555	6.38E+00
3.556	7.18E+00
3.557	1.57E+00
3.558	7.18E+00
3.559	5.58E+00
3.56	4.77E+00
3.561	5.58E+00
3.562	7.18E+00
3.563	7.18E+00
3.564	3.97E+00
3.565	5.58E+00
3.566	7.18E+00
3.567	7.98E+00
3.568	7.18E+00
3.569	7.18E+00
3.57	4.77E+00
3.571	7.18E+00
3.572	7.98E+00
3.573	5.58E+00
3.574	7.18E+00
3.575	8.78E+00
3.576	5.58E+00
3.577	6.38E+00
3.578	7.18E+00
3.579	5.58E+00
3.58	7.18E+00
3.581	8.78E+00
3.582	6.38E+00
3.583	5.58E+00
3.584	1.57E+00
3.585	7.18E+00
3.586	3.97E+00
3.587	4.77E+00
3.588	5.58E+00
3.589	4.77E+00
3.59	4.77E+00
3.591	1.57E+00
3.592	4.77E+00
3.593	7.98E+00
3.594	4.77E+00
3.595	6.38E+00
3.596	2.37E+00
3.597	4.77E+00
3.598	5.58E+00
3.599	5.58E+00
3.6	6.38E+00
3.601	5.58E+00
3.602	4.77E+00
3.603	7.98E+00
3.604	9.58E+00
3.605	7.18E+00
3.606	4.77E+00
3.607	4.77E+00
3.608	5.58E+00
3.609	3.97E+00
3.61	5.58E+00
3.611	4.77E+00
3.612	5.58E+00
3.613	3.97E+00
3.614	7.98E+00
3.615	6.38E+00
3.616	6.38E+00
3.617	4.77E+00
3.618	8.78E+00
3.619	7.18E+00
3.62	7.98E+00
3.621	4.77E+00
3.622	5.58E+00
3.623	5.58E+00
3.624	4.77E+00
3.625	7.18E+00
3.626	8.78E+00
3.627	5.58E+00
3.628	5.58E+00
3.629	3.97E+00
3.63	6.38E+00
3.631	4.77E+00
3.632	7.18E+00
3.633	3.97E+00
3.634	6.38E+00
3.635	6.38E+00
3.636	4.77E+00
3.637	8.78E+00
3.638	7.98E+00
3.639	4.77E+00
3.64	9.58E+00
3.641	1.57E+00
3.642	1.12E+01
3.643	7.18E+00
3.644	1.04E+01
3.645	4.77E+00
3.646	9.58E+00
3.647	6.38E+00
3.648	4.77E+00
3.649	3.97E+00
3.65	8.78E+00
3.651	5.58E+00
3.652	7.98E+00
3.653	6.38E+00
3.654	6.38E+00
3.655	3.17E+00
3.656	7.98E+00
3.657	5.58E+00
3.658	6.38E+00
3.659	7.98E+00
3.66	3.97E+00
3.661	5.58E+00
3.662	9.58E+00
3.663	7.98E+00
3.664	6.38E+00
3.665	5.58E+00
3.666	5.58E+00
3.667	6.38E+00
3.668	7.18E+00
3.669	1.12E+01
3.67	1.04E+01
3.671	6.38E+00
3.672	7.98E+00
3.673	7.98E+00
3.674	7.18E+00
3.675	1.04E+01
3.676	6.38E+00
3.677	6.38E+00
3.678	7.18E+00
3.679	5.58E+00
3.68	4.77E+00
3.681	4.77E+00
3.682	4.77E+00
3.683	3.17E+00
3.684	7.66E-01
3.685	5.58E+00
3.686	6.38E+00
3.687	2.37E+00
3.688	3.97E+00
3.689	7.18E+00
3.69	3.97E+00
3.691	3.97E+00
3.692	7.18E+00
3.693	7.18E+00
3.694	5.58E+00
3.695	4.77E+00
3.696	7.66E-01
3.697	6.38E+00
3.698	9.58E+00
3.699	6.38E+00
3.7	6.38E+00
3.701	5.58E+00
3.702	7.18E+00
3.703	5.58E+00
3.704	7.18E+00
3.705	5.58E+00
3.706	9.58E+00
3.707	8.78E+00
3.708	-3.57E-02
3.709	4.77E+00
3.71	4.77E+00
3.711	5.58E+00
3.712	7.18E+00
3.713	7.98E+00
3.714	3.17E+00
3.715	5.58E+00
3.716	7.98E+00
3.717	7.98E+00
3.718	5.58E+00
3.719	7.18E+00
3.72	6.38E+00
3.721	7.18E+00
3.722	4.77E+00
3.723	8.78E+00
3.724	1.04E+01
3.725	8.78E+00
3.726	1.57E+00
3.727	4.77E+00
3.728	7.18E+00
3.729	7.98E+00
3.73	4.77E+00
3.731	2.37E+00
3.732	4.77E+00
3.733	7.98E+00
3.734	8.78E+00
3.735	9.58E+00
3.736	7.18E+00
3.737	2.37E+00
3.738	7.18E+00
3.739	3.17E+00
3.74	1.04E+01
3.741	7.98E+00
3.742	4.77E+00
3.743	5.58E+00
3.744	4.77E+00
3.745	4.77E+00
3.746	8.78E+00
3.747	9.58E+00
3.748	6.38E+00
3.749	2.37E+00
3.75	8.78E+00
3.751	6.38E+00
3.752	7.98E+00
3.753	5.58E+00
3.754	6.38E+00
3.755	1.04E+01
3.756	7.18E+00
3.757	5.58E+00
3.758	3.97E+00
3.759	4.77E+00
3.76	7.18E+00
3.761	7.66E-01
3.762	4.77E+00
3.763	7.18E+00
3.764	6.38E+00
3.765	8.78E+00
3.766	7.98E+00
3.767	5.58E+00
3.768	3.17E+00
3.769	3.17E+00
3.77	1.57E+00
3.771	7.18E+00
3.772	5.58E+00
3.773	3.97E+00
3.774	6.38E+00
3.775	6.38E+00
3.776	7.98E+00
3.777	4.77E+00
3.778	4.77E+00
3.779	3.97E+00
3.78	8.78E+00
3.781	5.58E+00
3.782	3.17E+00
3.783	5.58E+00
3.784	4.77E+00
3.785	3.17E+00
3.786	4.77E+00
3.787	6.38E+00
3.788	7.18E+00
3.789	5.58E+00
3.79	7.98E+00
3.791	7.18E+00
3.792	3.17E+00
3.793	6.38E+00
3.794	9.58E+00
3.795	6.38E+00
3.796	4.77E+00
3.797	7.98E+00
3.798	7.98E+00
3.799	7.98E+00
3.8	6.38E+00
3.801	3.97E+00
3.802	5.58E+00
3.803	2.37E+00
3.804	4.77E+00
3.805	5.58E+00
3.806	4.77E+00
3.807	8.78E+00
3.808	5.58E+00
3.809	5.58E+00
3.81	9.58E+00
3.811	4.77E+00
3.812	3.97E+00
3.813	7.18E+00
3.814	4.77E+00
3.815	4.77E+00
3.816	6.38E+00
3.817	7.18E+00
3.818	3.17E+00
3.819	6.38E+00
3.82	4.77E+00
3.821	1.28E+01
3.822	6.38E+00
3.823	3.97E+00
3.824	6.38E+00
3.825	9.58E+00
3.826	8.78E+00
3.827	5.58E+00
3.828	4.77E+00
3.829	6.38E+00
3.83	7.98E+00
3.831	1.04E+01
3.832	6.38E+00
3.833	6.38E+00
3.834	7.98E+00
3.835	7.98E+00
3.836	5.58E+00
3.837	8.78E+00
3.838	5.58E+00
3.839	7.18E+00
3.84	7.18E+00
3.841	3.97E+00
3.842	3.97E+00
3.843	5.58E+00
3.844	5.58E+00
3.845	3.17E+00
3.846	7.18E+00
3.847	6.38E+00
3.848	7.98E+00
3.849	8.78E+00
3.85	7.66E-01
3.851	7.18E+00
3.852	6.38E+00
3.853	6.38E+00
3.854	4.77E+00
3.855	8.78E+00
3.856	9.58E+00
3.857	3.17E+00
3.858	1.04E+01
3.859	6.38E+00
3.86	3.17E+00
3.861	2.37E+00
3.862	5.58E+00
3.863	5.58E+00
3.864	-3.57E-02
3.865	1.04E+01
3.866	6.38E+00
3.867	7.98E+00
3.868	8.78E+00
3.869	5.58E+00
3.87	9.58E+00
3.871	7.98E+00
3.872	7.18E+00
3.873	7.98E+00
3.874	8.78E+00
3.875	5.58E+00
3.876	7.18E+00
3.877	7.18E+00
3.878	2.37E+00
3.879	6.38E+00
3.88	5.58E+00
3.881	8.78E+00
3.882	5.58E+00
3.883	3.97E+00
3.884	8.78E+00
3.885	5.58E+00
3.886	7.98E+00
3.887	3.17E+00
3.888	4.77E+00
3.889	4.77E+00
3.89	7.98E+00
3.891	3.97E+00
3.892	8.78E+00
3.893	8.78E+00
3.894	4.77E+00
3.895	8.78E+00
3.896	7.18E+00
3.897	9.58E+00
3.898	7.18E+00
3.899	7.98E+00
3.9	6.38E+00
3.901	4.77E+00
3.902	7.66E-01
3.903	5.58E+00
3.904	5.58E+00
3.905	5.58E+00
3.906	7.98E+00
3.907	7.98E+00
3.908	6.38E+00
3.909	7.98E+00
3.91	1.04E+01
3.911	2.37E+00
3.912	5.58E+00
3.913	8.78E+00
3.914	4.77E+00
3.915	2.37E+00
3.916	6.38E+00
3.917	6.38E+00
3.918	7.98E+00
3.919	7.98E+00
3.92	5.58E+00
3.921	4.77E+00
3.922	4.77E+00
3.923	7.18E+00
3.924	6.38E+00
3.925	5.58E+00
3.926	4.77E+00
3.927	6.38E+00
3.928	3.97E+00
3.929	6.38E+00
3.93	3.17E+00
3.931	6.38E+00
3.932	5.58E+00
3.933	7.98E+00
3.934	4.77E+00
3.935	3.97E+00
3.936	6.38E+00
3.937	7.18E+00
3.938	5.58E+00
3.939	8.78E+00
3.94	6.38E+00
3.941	4.77E+00
3.942	2.37E+00
3.943	5.58E+00
3.944	7.98E+00
3.945	5.58E+00
3.946	4.77E+00
3.947	-8.37E-01
3.948	9.58E+00
3.949	5.58E+00
3.95	8.78E+00
3.951	8.78E+00
3.952	1.57E+00
3.953	7.98E+00
3.954	4.77E+00
3.955	4.77E+00
3.956	8.78E+00
3.957	7.18E+00
3.958	9.58E+00
3.959	7.98E+00
3.96	2.37E+00
3.961	3.17E+00
3.962	8.78E+00
3.963	8.78E+00
3.964	8.78E+00
3.965	3.97E+00
3.966	7.98E+00
3.967	9.58E+00
3.968	6.38E+00
3.969	4.77E+00
3.97	9.58E+00
3.971	6.38E+00
3.972	2.37E+00
3.973	3.17E+00
3.974	9.58E+00
3.975	4.77E+00
3.976	7.98E+00
3.977	6.38E+00
3.978	3.97E+00
3.979	4.77E+00
3.98	5.58E+00
3.981	3.97E+00
3.982	5.58E+00
3.983	5.58E+00
3.984	4.77E+00
3.985	6.38E+00
3.986	3.17E+00
3.987	5.58E+00
3.988	8.78E+00
3.989	3.97E+00
3.99	9.58E+00
3.991	4.77E+00
3.992	7.18E+00
3.993	3.17E+00
3.994	3.17E+00
3.995	3.97E+00
3.996	5.58E+00
3.997	9.58E+00
3.998	6.38E+00
3.999	4.77E+00
4	3.17E+00
4.001	9.58E+00
4.002	4.77E+00
4.003	7.98E+00
4.004	4.77E+00
4.005	7.98E+00
4.006	6.38E+00
4.007	8.78E+00
4.008	9.58E+00
4.009	7.66E-01
4.01	1.20E+01
4.011	5.58E+00
4.012	7.98E+00
4.013	5.58E+00
4.014	6.38E+00
4.015	4.77E+00
4.016	5.58E+00
4.017	6.38E+00
4.018	5.58E+00
4.019	8.78E+00
4.02	4.77E+00
4.021	4.77E+00
4.022	3.97E+00
4.023	8.78E+00
4.024	5.58E+00
4.025	6.38E+00
4.026	3.97E+00
4.027	4.77E+00
4.028	8.78E+00
4.029	8.78E+00
4.03	3.17E+00
4.031	7.18E+00
4.032	3.17E+00
4.033	7.18E+00
4.034	8.78E+00
4.035	5.58E+00
4.036	4.77E+00
4.037	1.57E+00
4.038	3.17E+00
4.039	2.37E+00
4.04	6.38E+00
4.041	5.58E+00
4.042	7.18E+00
4.043	7.18E+00
4.044	4.77E+00
4.045	3.17E+00
4.046	7.18E+00
4.047	5.58E+00
4.048	5.58E+00
4.049	4.77E+00
4.05	3.17E+00
4.051	9.58E+00
4.052	8.78E+00
4.053	6.38E+00
4.054	7.18E+00
4.055	6.38E+00
4.056	5.58E+00
4.057	3.97E+00
4.058	9.58E+00
4.059	1.12E+01
4.06	8.78E+00
4.061	7.18E+00
4.062	8.78E+00
4.063	7.98E+00
4.064	4.77E+00
4.065	5.58E+00
4.066	7.98E+00
4.067	8.78E+00
4.068	4.77E+00
4.069	6.38E+00
4.07	3.17E+00
4.071	6.38E+00
4.072	1.04E+01
4.073	7.98E+00
4.074	7.98E+00
4.075	1.57E+00
4.076	7.98E+00
4.077	5.58E+00
4.078	7.18E+00
4.079	3.17E+00
4.08	7.98E+00
4.081	5.58E+00
4.082	7.98E+00
4.083	2.37E+00
4.084	4.77E+00
4.085	4.77E+00
4.086	7.18E+00
4.087	6.38E+00
4.088	8.78E+00
4.089	7.18E+00
4.09	6.38E+00
4.091	2.37E+00
4.092	6.38E+00
4.093	3.97E+00
4.094	6.38E+00
4.095	1.04E+01
4.096	7.98E+00
4.097	5.58E+00
4.098	4.77E+00
4.099	4.77E+00
4.1	8.78E+00
4.101	8.78E+00
4.102	5.58E+00
4.103	8.78E+00
4.104	3.97E+00
4.105	6.38E+00
4.106	6.38E+00
4.107	7.18E+00
4.108	8.78E+00
4.109	7.18E+00
4.11	4.77E+00
4.111	6.38E+00
4.112	3.97E+00
4.113	5.58E+00
4.114	6.38E+00
4.115	5.58E+00
4.116	7.66E-01
4.117	7.18E+00
4.118	1.04E+01
4.119	3.97E+00
4.12	6.38E+00
4.121	5.58E+00
4.122	3.97E+00
4.123	8.78E+00
4.124	6.38E+00
4.125	7.18E+00
4.126	7.98E+00
4.127	4.77E+00
4.128	7.18E+00
4.129	5.58E+00
4.13	1.04E+01
4.131	5.58E+00
4.132	4.77E+00
4.133	4.77E+00
4.134	3.17E+00
4.135	5.58E+00
4.136	7.18E+00
4.137	7.98E+00
4.138	8.78E+00
4.139	6.38E+00
4.14	5.58E+00
4.141	5.58E+00
4.142	7.98E+00
4.143	4.77E+00
4.144	5.58E+00
4.145	5.58E+00
4.146	9.58E+00
4.147	7.18E+00
4.148	1.57E+00
4.149	3.17E+00
4.15	7.98E+00
4.151	7.18E+00
4.152	3.97E+00
4.153	7.98E+00
4.154	6.38E+00
4.155	1.57E+00
4.156	7.98E+00
4.157	6.38E+00
4.158	6.38E+00
4.159	3.17E+00
4.16	5.58E+00
4.161	5.58E+00
4.162	5.58E+00
4.163	7.18E+00
4.164	6.38E+00
4.165	8.78E+00
4.166	5.58E+00
4.167	5.58E+00
4.168	4.77E+00
4.169	7.98E+00
4.17	6.38E+00
4.171	7.98E+00
4.172	7.98E+00
4.173	9.58E+00
4.174	4.77E+00
4.175	3.17E+00
4.176	7.98E+00
4.177	7.18E+00
4.178	8.78E+00
4.179	7.98E+00
4.18	2.37E+00
4.181	4.77E+00
4.182	3.97E+00
4.183	6.38E+00
4.184	6.38E+00
4.185	7.98E+00
4.186	6.38E+00
4.187	9.58E+00
4.188	7.18E+00
4.189	8.78E+00
4.19	7.98E+00
4.191	4.77E+00
4.192	8.78E+00
4.193	5.58E+00
4.194	7.98E+00
4.195	4.77E+00
4.196	4.77E+00
4.197	5.58E+00
4.198	3.17E+00
4.199	6.38E+00
4.2	7.18E+00
4.201	3.17E+00
4.202	4.77E+00
4.203	9.58E+00
4.204	7.18E+00
4.205	7.18E+00
4.206	8.78E+00
4.207	3.17E+00
4.208	5.58E+00
4.209	6.38E+00
4.21	7.18E+00
4.211	1.04E+01
4.212	1.12E+01
4.213	3.17E+00
4.214	6.38E+00
4.215	9.58E+00
4.216	8.78E+00
4.217	5.58E+00
4.218	7.18E+00
4.219	5.58E+00
4.22	5.58E+00
4.221	6.38E+00
4.222	5.58E+00
4.223	4.77E+00
4.224	7.18E+00
4.225	9.58E+00
4.226	6.38E+00
4.227	6.38E+00
4.228	5.58E+00
4.229	7.98E+00
4.23	4.77E+00
4.231	3.97E+00
4.232	6.38E+00
4.233	1.12E+01
4.234	8.78E+00
4.235	7.98E+00
4.236	9.58E+00
4.237	5.58E+00
4.238	4.77E+00
4.239	7.98E+00
4.24	7.98E+00
4.241	9.58E+00
4.242	7.18E+00
4.243	8.78E+00
4.244	6.38E+00
4.245	7.98E+00
4.246	6.38E+00
4.247	7.18E+00
4.248	7.18E+00
4.249	8.78E+00
4.25	5.58E+00
4.251	7.98E+00
4.252	7.18E+00
4.253	1.12E+01
4.254	4.77E+00
4.255	7.98E+00
4.256	3.97E+00
4.257	7.98E+00
4.258	7.98E+00
4.259	9.58E+00
4.26	7.98E+00
4.261	7.98E+00
4.262	6.38E+00
4.263	5.58E+00
4.264	7.98E+00
4.265	5.58E+00
4.266	7.98E+00
4.267	7.18E+00
4.268	7.98E+00
4.269	6.38E+00
4.27	6.38E+00
4.271	3.97E+00
4.272	8.78E+00
4.273	7.98E+00
4.274	5.58E+00
4.275	4.77E+00
4.276	4.77E+00
4.277	7.98E+00
4.278	8.78E+00
4.279	6.38E+00
4.28	7.98E+00
4.281	6.38E+00
4.282	5.58E+00
4.283	5.58E+00
4.284	7.18E+00
4.285	8.78E+00
4.286	6.38E+00
4.287	7.18E+00
4.288	6.38E+00
4.289	2.37E+00
4.29	6.38E+00
4.291	7.18E+00
4.292	7.18E+00
4.293	1.04E+01
4.294	7.18E+00
4.295	5.58E+00
4.296	7.98E+00
4.297	5.58E+00
4.298	4.77E+00
4.299	5.58E+00
4.3	3.97E+00
4.301	6.38E+00
4.302	8.78E+00
4.303	9.58E+00
4.304	6.38E+00
4.305	6.38E+00
4.306	1.04E+01
4.307	3.97E+00
4.308	1.28E+01
4.309	8.78E+00
4.31	5.58E+00
4.311	6.38E+00
4.312	9.58E+00
4.313	6.38E+00
4.314	6.38E+00
4.315	9.58E+00
4.316	4.77E+00
4.317	6.38E+00
4.318	8.78E+00
4.319	7.18E+00
4.32	5.58E+00
4.321	8.78E+00
4.322	3.17E+00
4.323	4.77E+00
4.324	5.58E+00
4.325	7.98E+00
4.326	4.77E+00
4.327	1.57E+00
4.328	7.18E+00
4.329	4.77E+00
4.33	6.38E+00
4.331	5.58E+00
4.332	2.37E+00
4.333	-3.57E-02
4.334	8.78E+00
4.335	6.38E+00
4.336	4.77E+00
4.337	7.66E-01
4.338	2.37E+00
4.339	3.17E+00
4.34	7.18E+00
4.341	8.78E+00
4.342	5.58E+00
4.343	4.77E+00
4.344	6.38E+00
4.345	8.78E+00
4.346	5.58E+00
4.347	4.77E+00
4.348	5.58E+00
4.349	6.38E+00
4.35	7.18E+00
4.351	7.18E+00
4.352	3.97E+00
4.353	4.77E+00
4.354	6.38E+00
4.355	1.04E+01
4.356	6.38E+00
4.357	4.77E+00
4.358	5.58E+00
4.359	4.77E+00
4.36	6.38E+00
4.361	4.77E+00
4.362	5.58E+00
4.363	4.77E+00
4.364	1.57E+00
4.365	1.57E+00
4.366	6.38E+00
4.367	4.77E+00
4.368	8.78E+00
4.369	2.37E+00
4.37	2.37E+00
4.371	5.58E+00
4.372	5.58E+00
4.373	4.77E+00
4.374	7.18E+00
4.375	9.58E+00
4.376	4.77E+00
4.377	7.98E+00
4.378	7.18E+00
4.379	6.38E+00
4.38	7.98E+00
4.381	6.38E+00
4.382	7.98E+00
4.383	7.18E+00
4.384	3.17E+00
4.385	1.04E+01
4.386	1.57E+00
4.387	7.18E+00
4.388	4.77E+00
4.389	4.77E+00
4.39	6.38E+00
4.391	5.58E+00
4.392	3.97E+00
4.393	5.58E+00
4.394	4.77E+00
4.395	5.58E+00
4.396	3.17E+00
4.397	6.38E+00
4.398	7.18E+00
4.399	9.58E+00
4.4	3.97E+00
4.401	4.77E+00
4.402	7.98E+00
4.403	4.77E+00
4.404	6.38E+00
4.405	4.77E+00
4.406	6.38E+00
4.407	2.37E+00
4.408	7.18E+00
4.409	4.77E+00
4.41	7.98E+00
4.411	1.57E+00
4.412	4.77E+00
4.413	7.98E+00
4.414	9.58E+00
4.415	6.38E+00
4.416	8.78E+00
4.417	4.77E+00
4.418	4.77E+00
4.419	3.17E+00
4.42	2.37E+00
4.421	5.58E+00
4.422	3.17E+00
4.423	1.57E+00
4.424	6.38E+00
4.425	-3.57E-02
4.426	6.38E+00
4.427	3.97E+00
4.428	7.98E+00
4.429	3.17E+00
4.43	6.38E+00
4.431	3.17E+00
4.432	9.58E+00
4.433	4.77E+00
4.434	3.97E+00
4.435	4.77E+00
4.436	6.38E+00
4.437	6.38E+00
4.438	5.58E+00
4.439	3.17E+00
4.44	7.18E+00
4.441	9.58E+00
4.442	7.98E+00
4.443	2.37E+00
4.444	3.97E+00
4.445	3.97E+00
4.446	1.12E+01
4.447	7.18E+00
4.448	5.58E+00
4.449	4.77E+00
4.45	2.37E+00
4.451	3.17E+00
4.452	3.97E+00
4.453	6.38E+00
4.454	4.77E+00
4.455	8.78E+00
4.456	7.18E+00
4.457	7.18E+00
4.458	6.38E+00
4.459	4.77E+00
4.46	7.18E+00
4.461	4.77E+00
4.462	3.17E+00
4.463	5.58E+00
4.464	7.98E+00
4.465	5.58E+00
4.466	7.18E+00
4.467	1.57E+00
4.468	6.38E+00
4.469	8.78E+00
4.47	5.58E+00
4.471	9.58E+00
4.472	3.97E+00
4.473	5.58E+00
4.474	4.77E+00
4.475	7.98E+00
4.476	6.38E+00
4.477	5.58E+00
4.478	3.97E+00
4.479	3.17E+00
4.48	7.98E+00
4.481	5.58E+00
4.482	7.98E+00
4.483	9.58E+00
4.484	7.98E+00
4.485	5.58E+00
4.486	6.38E+00
4.487	4.77E+00
4.488	6.38E+00
4.489	7.18E+00
4.49	9.58E+00
4.491	8.78E+00
4.492	3.17E+00
4.493	8.78E+00
4.494	5.58E+00
4.495	7.98E+00
4.496	5.58E+00
4.497	8.78E+00
4.498	3.17E+00
4.499	7.18E+00
4.5	5.58E+00
4.501	3.97E+00
4.502	5.58E+00
4.503	1.12E+01
4.504	5.58E+00
4.505	4.77E+00
4.506	4.77E+00
4.507	4.77E+00
4.508	4.77E+00
4.509	4.77E+00
4.51	3.17E+00
4.511	3.97E+00
4.512	7.18E+00
4.513	6.38E+00
4.514	7.98E+00
4.515	4.77E+00
4.516	3.97E+00
4.517	6.38E+00
4.518	6.38E+00
4.519	2.37E+00
4.52	5.58E+00
4.521	7.18E+00
4.522	4.77E+00
4.523	7.18E+00
4.524	3.17E+00
4.525	4.77E+00
4.526	7.18E+00
4.527	3.17E+00
4.528	4.77E+00
4.529	7.98E+00
4.53	3.17E+00
4.531	3.17E+00
4.532	7.98E+00
4.533	5.58E+00
4.534	7.18E+00
4.535	5.58E+00
4.536	3.17E+00
4.537	2.37E+00
4.538	9.58E+00
4.539	6.38E+00
4.54	3.17E+00
4.541	5.58E+00
4.542	7.98E+00
4.543	7.18E+00
4.544	7.18E+00
4.545	4.77E+00
4.546	6.38E+00
4.547	8.78E+00
4.548	7.18E+00
4.549	7.18E+00
4.55	7.18E+00
4.551	8.78E+00
4.552	5.58E+00
4.553	8.78E+00
4.554	7.98E+00
4.555	5.58E+00
4.556	5.58E+00
4.557	9.58E+00
4.558	7.98E+00
4.559	9.58E+00
4.56	9.58E+00
4.561	-3.57E-02
4.562	7.98E+00
4.563	6.38E+00
4.564	6.38E+00
4.565	3.17E+00
4.566	4.77E+00
4.567	5.58E+00
4.568	5.58E+00
4.569	6.38E+00
4.57	6.38E+00
4.571	7.98E+00
4.572	9.58E+00
4.573	6.38E+00
4.574	5.58E+00
4.575	2.37E+00
4.576	5.58E+00
4.577	7.98E+00
4.578	9.58E+00
4.579	5.58E+00
4.58	4.77E+00
4.581	2.37E+00
4.582	6.38E+00
4.583	7.18E+00
4.584	7.98E+00
4.585	6.38E+00
4.586	3.97E+00
4.587	7.18E+00
4.588	7.98E+00
4.589	3.97E+00
4.59	4.77E+00
4.591	2.37E+00
4.592	8.78E+00
4.593	4.77E+00
4.594	3.17E+00
4.595	5.58E+00
4.596	6.38E+00
4.597	5.58E+00
4.598	7.98E+00
4.599	3.17E+00
4.6	5.58E+00
4.601	6.38E+00
4.602	3.97E+00
4.603	4.77E+00
4.604	6.38E+00
4.605	8.78E+00
4.606	7.18E+00
4.607	4.77E+00
4.608	7.66E-01
4.609	6.38E+00
4.61	9.58E+00
4.611	5.58E+00
4.612	4.77E+00
4.613	2.37E+00
4.614	6.38E+00
4.615	7.18E+00
4.616	6.38E+00
4.617	5.58E+00
4.618	6.38E+00
4.619	9.58E+00
4.62	8.78E+00
4.621	5.58E+00
4.622	3.17E+00
4.623	3.97E+00
4.624	4.77E+00
4.625	4.77E+00
4.626	6.38E+00
4.627	3.97E+00
4.628	7.18E+00
4.629	6.38E+00
4.63	8.78E+00
4.631	3.97E+00
4.632	8.78E+00
4.633	4.77E+00
4.634	6.38E+00
4.635	6.38E+00
4.636	5.58E+00
4.637	4.77E+00
4.638	6.38E+00
4.639	7.98E+00
4.64	3.17E+00
4.641	7.18E+00
4.642	7.18E+00
4.643	6.38E+00
4.644	2.37E+00
4.645	5.58E+00
4.646	7.98E+00
4.647	7.18E+00
4.648	4.77E+00
4.649	5.58E+00
4.65	6.38E+00
4.651	8.78E+00
4.652	7.98E+00
4.653	1.12E+01
4.654	8.78E+00
4.655	7.98E+00
4.656	1.28E+01
4.657	7.98E+00
4.658	9.58E+00
4.659	7.98E+00
4.66	3.17E+00
4.661	8.78E+00
4.662	6.38E+00
4.663	5.58E+00
4.664	8.78E+00
4.665	1.04E+01
4.666	7.18E+00
4.667	3.97E+00
4.668	4.77E+00
4.669	9.58E+00
4.67	7.18E+00
4.671	1.04E+01
4.672	4.77E+00
4.673	7.98E+00
4.674	8.78E+00
4.675	4.77E+00
4.676	9.58E+00
4.677	9.58E+00
4.678	1.04E+01
4.679	1.12E+01
4.68	7.98E+00
4.681	1.12E+01
4.682	9.58E+00
4.683	7.98E+00
4.684	7.18E+00
4.685	9.58E+00
4.686	6.38E+00
4.687	5.58E+00
4.688	8.78E+00
4.689	6.38E+00
4.69	1.04E+01
4.691	7.98E+00
4.692	6.38E+00
4.693	6.38E+00
4.694	6.38E+00
4.695	5.58E+00
4.696	3.17E+00
4.697	5.58E+00
4.698	7.18E+00
4.699	5.58E+00
4.7	8.78E+00
4.701	8.78E+00
4.702	8.78E+00
4.703	8.78E+00
4.704	7.98E+00
4.705	5.58E+00
4.706	1.04E+01
4.707	6.38E+00
4.708	5.58E+00
4.709	5.58E+00
4.71	7.18E+00
4.711	8.78E+00
4.712	5.58E+00
4.713	7.18E+00
4.714	7.18E+00
4.715	5.58E+00
4.716	9.58E+00
4.717	5.58E+00
4.718	5.58E+00
4.719	6.38E+00
4.72	3.97E+00
4.721	5.58E+00
4.722	4.77E+00
4.723	1.04E+01
4.724	6.38E+00
4.725	3.17E+00
4.726	4.77E+00
4.727	9.58E+00
4.728	9.58E+00
4.729	7.98E+00
4.73	7.98E+00
4.731	8.78E+00
4.732	9.58E+00
4.733	4.77E+00
4.734	6.38E+00
4.735	5.58E+00
4.736	7.18E+00
4.737	1.12E+01
4.738	5.58E+00
4.739	7.98E+00
4.74	9.58E+00
4.741	5.58E+00
4.742	1.04E+01
4.743	4.77E+00
4.744	9.58E+00
4.745	7.18E+00
4.746	8.78E+00
4.747	1.04E+01
4.748	1.12E+01
4.749	5.58E+00
4.75	6.38E+00
4.751	5.58E+00
4.752	7.98E+00
4.753	6.38E+00
4.754	3.17E+00
4.755	5.58E+00
4.756	6.38E+00
4.757	7.18E+00
4.758	5.58E+00
4.759	6.38E+00
4.76	6.38E+00
4.761	9.58E+00
4.762	4.77E+00
4.763	5.58E+00
4.764	5.58E+00
4.765	5.58E+00
4.766	4.77E+00
4.767	1.12E+01
4.768	4.77E+00
4.769	5.58E+00
4.77	6.38E+00
4.771	6.38E+00
4.772	5.58E+00
4.773	4.77E+00
4.774	5.58E+00
4.775	7.18E+00
4.776	3.97E+00
4.777	4.77E+00
4.778	7.18E+00
4.779	1.04E+01
4.78	7.18E+00
4.781	4.77E+00
4.782	4.77E+00
4.783	5.58E+00
4.784	7.98E+00
4.785	8.78E+00
4.786	9.58E+00
4.787	4.77E+00
4.788	1.04E+01
4.789	6.38E+00
4.79	3.97E+00
4.791	6.38E+00
4.792	7.98E+00
4.793	3.97E+00
4.794	3.17E+00
4.795	6.38E+00
4.796	8.78E+00
4.797	3.97E+00
4.798	9.58E+00
4.799	7.18E+00
4.8	7.98E+00
4.801	5.58E+00
4.802	9.58E+00
4.803	7.18E+00
4.804	3.17E+00
4.805	6.38E+00
4.806	7.98E+00
4.807	2.37E+00
4.808	6.38E+00
4.809	6.38E+00
4.81	6.38E+00
4.811	1.04E+01
4.812	7.98E+00
4.813	3.97E+00
4.814	7.18E+00
4.815	5.58E+00
4.816	6.38E+00
4.817	4.77E+00
4.818	9.58E+00
4.819	6.38E+00
4.82	4.77E+00
4.821	6.38E+00
4.822	7.18E+00
4.823	5.58E+00
4.824	4.77E+00
4.825	3.17E+00
4.826	7.98E+00
4.827	3.17E+00
4.828	7.98E+00
4.829	3.97E+00
4.83	4.77E+00
4.831	-3.57E-02
4.832	6.38E+00
4.833	7.18E+00
4.834	7.18E+00
4.835	4.77E+00
4.836	9.58E+00
4.837	7.98E+00
4.838	8.78E+00
4.839	8.78E+00
4.84	3.17E+00
4.841	7.18E+00
4.842	4.77E+00
4.843	5.58E+00
4.844	2.37E+00
4.845	8.78E+00
4.846	7.66E-01
4.847	8.78E+00
4.848	1.12E+01
4.849	3.97E+00
4.85	7.98E+00
4.851	2.37E+00
4.852	7.18E+00
4.853	7.98E+00
4.854	2.37E+00
4.855	3.97E+00
4.856	7.18E+00
4.857	3.97E+00
4.858	7.98E+00
4.859	6.38E+00
4.86	3.97E+00
4.861	7.98E+00
4.862	3.17E+00
4.863	3.97E+00
4.864	7.18E+00
4.865	5.58E+00
4.866	5.58E+00
4.867	3.97E+00
4.868	7.66E-01
4.869	3.17E+00
4.87	5.58E+00
4.871	9.58E+00
4.872	5.58E+00
4.873	5.58E+00
4.874	5.58E+00
4.875	6.38E+00
4.876	7.18E+00
4.877	5.58E+00
4.878	6.38E+00
4.879	6.38E+00
4.88	5.58E+00
4.881	8.78E+00
4.882	7.18E+00
4.883	2.37E+00
4.884	7.98E+00
4.885	3.97E+00
4.886	4.77E+00
4.887	7.18E+00
4.888	4.77E+00
4.889	6.38E+00
4.89	8.78E+00
4.891	3.17E+00
4.892	1.57E+00
4.893	3.17E+00
4.894	8.78E+00
4.895	7.66E-01
4.896	6.38E+00
4.897	2.37E+00
4.898	7.18E+00
4.899	6.38E+00
4.9	4.77E+00
4.901	8.78E+00
4.902	8.78E+00
4.903	3.17E+00
4.904	6.38E+00
4.905	5.58E+00
4.906	6.38E+00
4.907	9.58E+00
4.908	4.77E+00
4.909	8.78E+00
4.91	2.37E+00
4.911	8.78E+00
4.912	3.17E+00
4.913	3.97E+00
4.914	3.17E+00
4.915	2.37E+00
4.916	9.58E+00
4.917	1.04E+01
4.918	1.12E+01
4.919	6.38E+00
4.92	8.78E+00
4.921	7.18E+00
4.922	6.38E+00
4.923	7.18E+00
4.924	5.58E+00
4.925	7.18E+00
4.926	3.17E+00
4.927	9.58E+00
4.928	1.04E+01
4.929	9.58E+00
4.93	5.58E+00
4.931	7.18E+00
4.932	9.58E+00
4.933	8.78E+00
4.934	6.38E+00
4.935	5.58E+00
4.936	7.98E+00
4.937	5.58E+00
4.938	7.98E+00
4.939	2.37E+00
4.94	8.78E+00
4.941	7.18E+00
4.942	5.58E+00
4.943	6.38E+00
4.944	7.98E+00
4.945	7.98E+00
4.946	7.98E+00
4.947	9.58E+00
4.948	5.58E+00
4.949	1.12E+01
4.95	5.58E+00
4.951	6.38E+00
4.952	6.38E+00
4.953	7.98E+00
4.954	8.78E+00
4.955	9.58E+00
4.956	7.18E+00
4.957	1.04E+01
4.958	7.98E+00
4.959	1.12E+01
4.96	3.17E+00
4.961	6.38E+00
4.962	4.77E+00
4.963	4.77E+00
4.964	1.04E+01
4.965	5.58E+00
4.966	1.12E+01
4.967	4.77E+00
4.968	7.98E+00
4.969	2.37E+00
4.97	6.38E+00
4.971	6.38E+00
4.972	3.97E+00
4.973	7.18E+00
4.974	3.17E+00
4.975	5.58E+00
4.976	7.98E+00
4.977	9.58E+00
4.978	8.78E+00
4.979	9.58E+00
4.98	5.58E+00
4.981	8.78E+00
4.982	6.38E+00
4.983	1.04E+01
4.984	4.77E+00
4.985	7.98E+00
4.986	1.20E+01
4.987	7.18E+00
4.988	5.58E+00
4.989	9.58E+00
4.99	7.98E+00
4.991	6.38E+00
4.992	5.58E+00
4.993	6.38E+00
4.994	7.18E+00
4.995	7.98E+00
4.996	7.98E+00
4.997	2.37E+00
4.998	1.04E+01
4.999	4.77E+00
5	5.58E+00
